time_ms,Lead_I,Lead_II,Lead_III
0,-0.0092,-0.0058,0.0034
2,0.0015,-0.012,-0.0135
4,0.0063,-0.0004,-0.0066
6,0.0015,0.0057,0.0041
8,0.0061,-0.001,-0.0071
10,0.0086,-0.011,-0.0197
12,-0.0156,-0.0113,0.0043
14,0.0053,0.0185,0.0132
16,0.0296,0.0149,-0.0147
18,0.016,-0.0253,-0.0413
20,-0.0088,0.0152,0.0239
22,-0.0022,-0.0162,-0.0141
24,0.022,0.006,-0.016
26,0.0031,-0.0026,-0.0057
28,-0.0077,0.0369,0.0446
30,0.0088,0.0003,-0.0085
32,0.0052,0.0321,0.0269
34,0.0145,0.0276,0.0131
36,0.0331,0.0335,0.0004
38,0.0162,0.0362,0.02
40,-0.0083,0.0182,0.0265
42,0.0244,0.0162,-0.0082
44,0.0258,0.0205,-0.0053
46,0.0461,0.062,0.0159
48,0.0287,0.0349,0.0062
50,0.0318,0.0635,0.0317
52,0.0525,0.0917,0.0392
54,0.0963,0.1252,0.0289
56,0.0438,0.1068,0.063
58,0.0759,0.1335,0.0577
60,0.0984,0.1673,0.0689
62,0.1079,0.1847,0.0768
64,0.1093,0.2001,0.0908
66,0.1111,0.2212,0.1101
68,0.1103,0.2176,0.1074
70,0.1626,0.2889,0.1263
72,0.1731,0.2864,0.1133
74,0.197,0.2626,0.0655
76,0.1718,0.2749,0.103
78,0.1914,0.2893,0.0979
80,0.1801,0.2804,0.1003
82,0.2038,0.2717,0.0679
84,0.1843,0.2926,0.1083
86,0.178,0.2645,0.0865
88,0.1822,0.2491,0.0669
90,0.1346,0.2489,0.1143
92,0.1749,0.2258,0.0509
94,0.1466,0.2118,0.0652
96,0.1257,0.1947,0.069
98,0.1023,0.1763,0.074
100,0.0772,0.1745,0.0973
102,0.0989,0.1367,0.0378
104,0.0597,0.1291,0.0695
106,0.0539,0.1271,0.0732
108,0.0706,0.0666,-0.0039
110,0.0688,0.068,-0.0009
112,0.0423,0.0611,0.0188
114,0.0263,0.0523,0.026
116,0.0352,0.0611,0.0259
118,0.0141,0.0083,-0.0057
120,0.0326,0.0246,-0.008
122,0.0254,0.0218,-0.0037
124,-0.0071,0.0356,0.0427
126,0.0223,0.0279,0.0055
128,0.0033,0.0069,0.0037
130,0.0273,-0.0009,-0.0282
132,0.0069,0.0115,0.0047
134,0.0128,0.0116,-0.0012
136,0.0206,0.0008,-0.0198
138,0.0378,-0.0083,-0.046
140,0.0139,0.019,0.0051
142,0.0126,0.0173,0.0047
144,0.018,0.0098,-0.0082
146,0.0174,0.0233,0.0059
148,0.0396,0.038,-0.0016
150,0.08,0.1182,0.0382
152,0.153,0.2412,0.0882
154,0.283,0.4369,0.1538
156,0.4626,0.7322,0.2696
158,0.6615,1.0585,0.397
160,0.8633,1.3996,0.5363
162,1.0484,1.699,0.6506
164,1.1626,1.8582,0.6956
166,1.1543,1.8549,0.7006
168,1.0634,1.6775,0.614
170,0.8713,1.3891,0.5178
172,0.6574,1.0509,0.3936
174,0.4329,0.691,0.2581
176,0.229,0.3766,0.1476
178,0.0712,0.1103,0.0391
180,-0.0151,-0.0289,-0.0138
182,-0.0622,-0.104,-0.0418
184,-0.0917,-0.1388,-0.0472
186,-0.0506,-0.1303,-0.0797
188,-0.0455,-0.0863,-0.0408
190,-0.0291,-0.0513,-0.0222
192,-0.0224,-0.0331,-0.0106
194,-0.013,0.0366,0.0496
196,0.0005,0.0239,0.0234
198,0.0354,0.0256,-0.0098
200,0.0366,0.0426,0.006
202,0.0221,0.0403,0.0181
204,0.0354,0.0547,0.0192
206,0.0204,0.047,0.0266
208,0.0459,0.0899,0.044
210,0.0362,0.0406,0.0044
212,0.0609,0.0605,-0.0005
214,0.0739,0.0972,0.0234
216,0.0576,0.1044,0.0468
218,0.0767,0.0955,0.0188
220,0.0532,0.0988,0.0456
222,0.0794,0.1068,0.0274
224,0.0763,0.1213,0.045
226,0.0877,0.1169,0.0291
228,0.0777,0.1332,0.0555
230,0.1027,0.1081,0.0053
232,0.0801,0.1443,0.0642
234,0.1119,0.1775,0.0656
236,0.1115,0.1633,0.0518
238,0.0964,0.1768,0.0804
240,0.0979,0.141,0.0431
242,0.0944,0.2016,0.1071
244,0.1147,0.1701,0.0554
246,0.1376,0.1944,0.0568
248,0.1538,0.2189,0.0651
250,0.1391,0.2057,0.0666
252,0.1581,0.2391,0.081
254,0.1486,0.2323,0.0838
256,0.1405,0.2383,0.0977
258,0.1647,0.2816,0.1169
260,0.1707,0.2775,0.1068
262,0.2035,0.2843,0.0808
264,0.1953,0.2929,0.0977
266,0.2255,0.3192,0.0937
268,0.1909,0.3373,0.1465
270,0.218,0.3379,0.12
272,0.2445,0.3672,0.1226
274,0.2376,0.3371,0.0995
276,0.2707,0.3608,0.0901
278,0.2475,0.3814,0.1339
280,0.2671,0.4084,0.1412
282,0.2553,0.4039,0.1486
284,0.2419,0.423,0.1811
286,0.274,0.4476,0.1736
288,0.3058,0.4548,0.1489
290,0.2982,0.4432,0.145
292,0.3043,0.445,0.1407
294,0.2767,0.451,0.1744
296,0.2716,0.4777,0.2061
298,0.3016,0.4809,0.1793
300,0.2897,0.4736,0.1839
302,0.2944,0.4633,0.1689
304,0.3001,0.4587,0.1586
306,0.2988,0.4433,0.1445
308,0.2943,0.4539,0.1595
310,0.2797,0.4522,0.1725
312,0.2684,0.437,0.1686
314,0.2946,0.446,0.1514
316,0.2556,0.4142,0.1586
318,0.27,0.397,0.127
320,0.2446,0.3992,0.1546
322,0.2334,0.3829,0.1495
324,0.2359,0.3683,0.1324
326,0.2255,0.3476,0.1221
328,0.225,0.3301,0.1051
330,0.1866,0.3236,0.1371
332,0.1949,0.3239,0.1291
334,0.1764,0.3062,0.1298
336,0.1817,0.2669,0.0852
338,0.1674,0.2711,0.1036
340,0.1621,0.2592,0.097
342,0.1614,0.2517,0.0903
344,0.1471,0.2151,0.068
346,0.1391,0.2275,0.0884
348,0.1348,0.1822,0.0474
350,0.1164,0.1544,0.038
352,0.0963,0.1737,0.0774
354,0.0946,0.1526,0.0579
356,0.0831,0.1214,0.0383
358,0.098,0.1389,0.0408
360,0.082,0.1214,0.0394
362,0.1001,0.109,0.009
364,0.06,0.0894,0.0294
366,0.0729,0.0853,0.0124
368,0.0745,0.067,-0.0075
370,0.0634,0.0809,0.0175
372,0.0651,0.088,0.0229
374,0.0429,0.0415,-0.0014
376,0.0315,0.0518,0.0203
378,0.0655,0.0492,-0.0163
380,0.0248,0.07,0.0452
382,0.0688,0.0515,-0.0173
384,0.0461,0.0646,0.0185
386,0.0316,0.0264,-0.0052
388,0.0214,0.0421,0.0207
390,0.0382,0.0338,-0.0044
392,0.0092,0.0371,0.0279
394,0.0252,0.0363,0.0111
396,0.0278,0.0121,-0.0157
398,0.0269,0.0284,0.0015
400,0.025,0.0178,-0.0072
402,0.0234,0.0538,0.0304
404,0.0135,0.0274,0.0139
406,0.027,0.0302,0.0032
408,0.0156,0.0061,-0.0095
410,0.0091,0.0241,0.015
412,0.0201,0.008,-0.0121
414,0.0063,0.0154,0.0091
416,0.0013,0.0086,0.0074
418,0.0187,0.0225,0.0039
420,0.0401,0.0061,-0.0341
422,0.0384,0.007,-0.0314
424,0.0204,0.0167,-0.0038
426,0.0178,0.0245,0.0067
428,0.0338,-0.0019,-0.0357
430,0.0318,0.0176,-0.0142
432,0.0292,0.0303,0.0011
434,0.0326,0.0133,-0.0193
436,0.0031,0.0152,0.0121
438,0.0142,0.0349,0.0207
440,0.0026,0.0146,0.0119
442,0.0325,0.0092,-0.0233
444,0.0216,0.0253,0.0038
446,0.0238,0.008,-0.0158
448,0.0218,0.0199,-0.0018
450,0.0031,0.0262,0.0232
452,0.0243,0.0104,-0.0139
454,0.0242,0.0172,-0.007
456,0.0113,0.0113,0
458,0.033,0.0178,-0.0151
460,0.0275,0.02,-0.0075
462,0.0195,0.0093,-0.0102
464,0.0258,0.0254,-0.0003
466,0.0023,0.0463,0.044
468,0.0114,0.0162,0.0048
470,0.0092,0.0331,0.0239
472,0.0363,0.0266,-0.0097
474,0.0267,0.0072,-0.0195
476,0.0336,-0.0131,-0.0467
478,0.029,0.0155,-0.0135
480,0.0166,-0.0024,-0.0191
482,0.0092,0.0071,-0.0021
484,0.0122,0.0436,0.0314
486,-0.0087,-0.0071,0.0016
488,0.0326,-0.0134,-0.046
490,0.0153,0.0161,0.0008
492,0.0263,0.0196,-0.0067
494,0.0184,0.0192,0.0008
496,0.031,0.0439,0.0129
498,0.0228,0.0209,-0.0019
500,0.0251,0.0416,0.0166
502,0.0325,0.0092,-0.0233
504,0.0202,0.0135,-0.0067
506,0.007,0.025,0.018
508,0.0104,0.0239,0.0135
510,0.0349,0.0031,-0.0318
512,0.0153,0.0166,0.0012
514,0.0207,0.0352,0.0145
516,0.0108,0.0243,0.0134
518,-0.0016,0.0301,0.0317
520,0.033,0.0259,-0.0071
522,0.0164,0.0179,0.0014
524,0.0306,0.0071,-0.0235
526,0.0257,0.033,0.0074
528,0.0137,0.0292,0.0156
530,0.0212,0.0175,-0.0036
532,0.0398,0.0192,-0.0206
534,0.0287,0.0238,-0.005
536,0.0229,0.0398,0.0169
538,0.0286,0.0065,-0.0221
540,0.0182,0.0233,0.0051
542,0.0335,0.0393,0.0059
544,0.0324,0.023,-0.0094
546,0.0206,0.0109,-0.0097
548,0.0238,0.0322,0.0085
550,0.0209,0.0171,-0.0038
552,0.0256,0.0234,-0.0022
554,0.0212,0.0303,0.0091
556,0.0362,0.0232,-0.013
558,0.0321,0.0237,-0.0084
560,0.025,0.0393,0.0143
562,0.0173,0.0126,-0.0047
564,0.0521,0.0316,-0.0205
566,0.022,0.007,-0.015
568,0.0048,0.0163,0.0115
570,0.0309,0.0335,0.0025
572,0.0156,0.0192,0.0036
574,0.0314,0.0219,-0.0095
576,0.0256,0.0254,-0.0001
578,0.0361,0.0224,-0.0137
580,0.0184,0.0226,0.0041
582,0.0176,0.0074,-0.0102
584,0.0281,0.0104,-0.0177
586,0.0094,0.0337,0.0243
588,0.0206,0.0034,-0.0172
590,0.0297,0.0527,0.023
592,0.0212,0.0186,-0.0026
594,0.0253,0.0107,-0.0146
596,0.0203,0.0047,-0.0156
598,0.0197,0.0168,-0.0029
600,0.0294,0.0221,-0.0073
602,0.0314,0.0292,-0.0022
604,0.0063,0.0082,0.0019
606,0.0159,0.0334,0.0175
608,0.0399,0.0168,-0.0232
610,0.0414,0.0394,-0.002
612,0.0165,0.0304,0.0139
614,0.0299,0.041,0.0111
616,0.0316,0.0221,-0.0095
618,0.0309,0.0322,0.0013
620,0.0254,0.0268,0.0014
622,0.0315,0.0239,-0.0076
624,0.0358,0.0098,-0.026
626,0.0188,0.0261,0.0073
628,0.0334,0.0077,-0.0257
630,0.0366,0.0408,0.0043
632,0.0429,0.0347,-0.0082
634,0.0167,0.0256,0.0089
636,0.0102,0.0119,0.0018
638,0.0331,0.0067,-0.0264
640,0.0208,0.0018,-0.019
642,0.0186,0.0216,0.003
644,0.0263,0.0253,-0.001
646,0.0149,0.0175,0.0025
648,0.0219,0.0183,-0.0036
650,0.0263,0.0033,-0.023
652,0.0214,0.0228,0.0014
654,0.0247,0.0095,-0.0152
656,0.0038,0.0121,0.0083
658,0.0376,0.042,0.0044
660,0.0371,0.033,-0.0041
662,0.0375,0.0219,-0.0156
664,0.0391,0.0117,-0.0274
666,0.0496,0.0191,-0.0305
668,0.0383,0.0329,-0.0054
670,0.036,0.044,0.0081
672,0.0032,0.0095,0.0063
674,0.0115,0.0549,0.0434
676,0.0334,0.0286,-0.0048
678,0.0215,0.0154,-0.0061
680,0.0222,0.038,0.0158
682,0.0361,0.0276,-0.0085
684,0.0274,0.0457,0.0183
686,0.0325,0.0233,-0.0092
688,0.0352,0.0199,-0.0154
690,0.0149,0.0305,0.0156
692,0.0372,0.0322,-0.005
694,0.0154,0.0163,0.0009
696,0.0382,0.0279,-0.0103
698,0.0134,0.0284,0.0151
700,0.0411,0.0406,-0.0005
702,0.0374,0.0053,-0.0321
704,0.0246,0.0295,0.0049
706,0.0313,0.0222,-0.0091
708,0.0048,0.0192,0.0144
710,0.0367,0.0266,-0.0101
712,0.0195,0.0303,0.0108
714,0.016,0.045,0.029
716,0.0271,0.0086,-0.0185
718,0.0341,0.0371,0.0029
720,0.0235,0.0052,-0.0183
722,0.0138,0.0224,0.0086
724,0.0244,0.0387,0.0143
726,0.0292,0.0548,0.0255
728,0.0348,0.0362,0.0013
730,0.0356,0.0132,-0.0224
732,0.027,0.0157,-0.0113
734,0.0116,0.0331,0.0215
736,0.0238,0.0198,-0.0039
738,0.0194,0.0105,-0.0089
740,0.0198,0.024,0.0042
742,0.0346,0.0527,0.0181
744,0.0313,0.0415,0.0101
746,0.0266,0.023,-0.0036
748,0.0345,0.0253,-0.0091
750,0.033,0.0185,-0.0144
752,0.0346,0.0335,-0.0012
754,0.0363,0.004,-0.0322
756,0.0248,0.0077,-0.0172
758,0.0327,0.0159,-0.0167
760,0.0169,0.0473,0.0304
762,0.0381,0.0284,-0.0097
764,0.0289,0.0274,-0.0015
766,0.0354,0.0344,-0.001
768,0.0213,0.0309,0.0097
770,0.0421,0.0444,0.0023
772,0.0407,0.0193,-0.0215
774,0.0355,0.0052,-0.0303
776,0.0263,0.0139,-0.0124
778,0.0651,0.0015,-0.0636
780,0.0154,0.0342,0.0187
782,0.0097,0.0435,0.0338
784,0.0352,0.0441,0.0089
786,0.0092,0.0157,0.0065
788,0.0542,0.0117,-0.0424
790,0.0462,0.0045,-0.0416
792,0.0304,0.0144,-0.016
794,0.0407,0.0142,-0.0266
796,0.0239,0.0296,0.0057
798,0.0184,0.0185,0.0001
800,0.0325,0.0205,-0.012
802,0.0377,0.014,-0.0237
804,0.0444,0.0544,0.01
806,0.0304,0.047,0.0166
808,0.0229,0.0346,0.0116
810,0.0284,0.0254,-0.0029
812,0.018,0.0308,0.0129
814,0.057,0.0426,-0.0144
816,0.0333,0.015,-0.0183
818,0.0425,0.0459,0.0034
820,0.039,0.0509,0.0119
822,0.0581,0.0507,-0.0074
824,0.0291,0.057,0.0279
826,0.0146,0.0121,-0.0025
828,0.0449,0.0476,0.0027
830,0.0286,0.0488,0.0202
832,0.0042,0.0632,0.059
834,0.0189,0.0493,0.0304
836,0.0419,0.0366,-0.0053
838,0.0369,0.0612,0.0242
840,0.0551,0.0736,0.0185
842,0.052,0.0723,0.0203
844,0.0813,0.092,0.0108
846,0.0594,0.0882,0.0288
848,0.0973,0.1292,0.032
850,0.0876,0.1167,0.0291
852,0.0993,0.1355,0.0362
854,0.1222,0.1339,0.0118
856,0.1415,0.1772,0.0357
858,0.1547,0.1879,0.0332
860,0.1572,0.216,0.0588
862,0.1609,0.2418,0.0808
864,0.173,0.207,0.034
866,0.172,0.2469,0.0749
868,0.1768,0.2747,0.0979
870,0.2025,0.2757,0.0732
872,0.216,0.3135,0.0974
874,0.2008,0.3141,0.1133
876,0.2152,0.3212,0.106
878,0.2243,0.3385,0.1142
880,0.2102,0.3243,0.1141
882,0.2291,0.2952,0.0661
884,0.2159,0.2914,0.0755
886,0.1846,0.2811,0.0965
888,0.2047,0.2758,0.0712
890,0.1828,0.2523,0.0695
892,0.1725,0.2366,0.0641
894,0.1498,0.2532,0.1034
896,0.1392,0.207,0.0679
898,0.1374,0.1883,0.0509
900,0.1254,0.166,0.0406
902,0.0902,0.1291,0.0389
904,0.1018,0.1377,0.036
906,0.0841,0.1118,0.0277
908,0.0811,0.1034,0.0223
910,0.0775,0.0902,0.0127
912,0.0563,0.0645,0.0082
914,0.0555,0.0704,0.0149
916,0.0795,0.07,-0.0095
918,0.0553,0.0677,0.0124
920,0.0502,0.0499,-0.0004
922,0.0352,0.0428,0.0076
924,0.034,0.0466,0.0126
926,0.0574,0.0559,-0.0015
928,0.0319,0.0281,-0.0038
930,0.0447,0.018,-0.0267
932,0.041,0.0361,-0.005
934,0.0404,0.0376,-0.0028
936,0.0177,0.0331,0.0154
938,0.0566,0.0411,-0.0155
940,0.0352,0.0324,-0.0028
942,0.0289,0.0423,0.0133
944,0.048,0.0218,-0.0262
946,0.0533,0.0379,-0.0155
948,0.1162,0.1434,0.0272
950,0.1995,0.2796,0.0801
952,0.337,0.5085,0.1715
954,0.5272,0.8308,0.3036
956,0.749,1.157,0.408
958,0.9733,1.5318,0.5585
960,1.1028,1.7538,0.651
962,1.1994,1.9128,0.7134
964,1.1574,1.8331,0.6757
966,1.0544,1.6508,0.5964
968,0.8795,1.3409,0.4615
970,0.6266,1.016,0.3895
972,0.4163,0.6434,0.2272
974,0.2346,0.3334,0.0988
976,0.0794,0.0974,0.018
978,-0.0121,-0.0306,-0.0185
980,-0.0521,-0.1174,-0.0653
982,-0.0433,-0.1263,-0.083
984,-0.0288,-0.0766,-0.0478
986,-0.0105,-0.0336,-0.0232
988,0.0011,-0.0198,-0.0209
990,0.0343,0.0121,-0.0221
992,0.0327,0.0123,-0.0204
994,0.0291,0.0567,0.0276
996,0.0614,0.0752,0.0137
998,0.0802,0.0715,-0.0086
1000,0.0732,0.0509,-0.0223
1002,0.0647,0.0607,-0.004
1004,0.0772,0.0769,-0.0003
1006,0.0629,0.0694,0.0065
1008,0.0683,0.1223,0.054
1010,0.0943,0.1093,0.0149
1012,0.0861,0.1081,0.022
1014,0.0903,0.1287,0.0384
1016,0.0706,0.1024,0.0318
1018,0.1,0.1308,0.0308
1020,0.1135,0.1358,0.0223
1022,0.1022,0.1528,0.0506
1024,0.1192,0.1474,0.0282
1026,0.1217,0.1725,0.0508
1028,0.1194,0.1713,0.0519
1030,0.1065,0.1833,0.0767
1032,0.1095,0.1867,0.0772
1034,0.1237,0.1829,0.0592
1036,0.1426,0.1726,0.03
1038,0.1398,0.205,0.0652
1040,0.1645,0.2103,0.0458
1042,0.1778,0.2121,0.0342
1044,0.1695,0.2402,0.0707
1046,0.151,0.2337,0.0827
1048,0.1576,0.2581,0.1005
1050,0.1722,0.2597,0.0875
1052,0.1778,0.2632,0.0854
1054,0.2143,0.2724,0.0581
1056,0.2114,0.3111,0.0997
1058,0.2121,0.3097,0.0976
1060,0.221,0.3095,0.0885
1062,0.2121,0.3304,0.1183
1064,0.2034,0.3605,0.1571
1066,0.2373,0.35,0.1127
1068,0.251,0.3661,0.1151
1070,0.2407,0.3753,0.1347
1072,0.2423,0.4102,0.1679
1074,0.2737,0.4329,0.1592
1076,0.2856,0.428,0.1424
1078,0.2856,0.4191,0.1335
1080,0.2868,0.4343,0.1475
1082,0.2935,0.445,0.1515
1084,0.3218,0.4469,0.125
1086,0.2866,0.4772,0.1906
1088,0.3064,0.4757,0.1692
1090,0.3256,0.4925,0.1669
1092,0.3208,0.4891,0.1683
1094,0.3014,0.4883,0.1869
1096,0.3291,0.4529,0.1238
1098,0.3154,0.516,0.2005
1100,0.3233,0.4846,0.1613
1102,0.3368,0.5077,0.1709
1104,0.3227,0.4891,0.1664
1106,0.3051,0.4822,0.1771
1108,0.3115,0.4555,0.144
1110,0.2689,0.4548,0.1859
1112,0.3002,0.4659,0.1657
1114,0.2876,0.4465,0.1589
1116,0.2746,0.434,0.1595
1118,0.3005,0.4172,0.1167
1120,0.2659,0.4044,0.1385
1122,0.2492,0.3818,0.1326
1124,0.2736,0.3897,0.1161
1126,0.2493,0.3531,0.1038
1128,0.236,0.3444,0.1084
1130,0.2271,0.3345,0.1074
1132,0.2239,0.3182,0.0943
1134,0.1996,0.2905,0.0909
1136,0.2012,0.2921,0.0909
1138,0.1847,0.2804,0.0956
1140,0.1716,0.2573,0.0857
1142,0.1608,0.2448,0.084
1144,0.189,0.2114,0.0225
1146,0.1656,0.1956,0.03
1148,0.1533,0.2065,0.0532
1150,0.1286,0.196,0.0675
1152,0.1374,0.1799,0.0425
1154,0.1321,0.1755,0.0434
1156,0.1083,0.1491,0.0408
1158,0.0889,0.1631,0.0742
1160,0.0958,0.1332,0.0374
1162,0.1098,0.134,0.0242
1164,0.087,0.1004,0.0134
1166,0.088,0.1177,0.0297
1168,0.0966,0.0898,-0.0068
1170,0.0647,0.1134,0.0487
1172,0.0473,0.0636,0.0163
1174,0.0671,0.0817,0.0146
1176,0.0685,0.0625,-0.006
1178,0.06,0.0398,-0.0201
1180,0.0654,0.0425,-0.0228
1182,0.0713,0.0623,-0.009
1184,0.0586,0.0677,0.0092
1186,0.0364,0.0702,0.0338
1188,0.0493,0.0457,-0.0037
1190,0.0454,0.0347,-0.0107
1192,0.0526,0.0855,0.0329
1194,0.044,0.0546,0.0105
1196,0.0463,0.0434,-0.0028
1198,0.0393,0.0458,0.0064
1200,0.0541,0.0628,0.0086
1202,0.0642,0.0451,-0.0192
1204,0.0443,0.037,-0.0072
1206,0.0381,0.0628,0.0247
1208,0.0464,0.0482,0.0018
1210,0.0427,0.0304,-0.0122
1212,0.0442,0.018,-0.0261
1214,0.0505,0.0536,0.003
1216,0.0188,0.0173,-0.0015
1218,0.0612,0.0453,-0.016
1220,0.0438,0.0398,-0.0041
1222,0.0365,0.0393,0.0028
1224,0.0649,0.0127,-0.0522
1226,0.0248,0.0359,0.011
1228,0.0188,0.0551,0.0362
1230,0.0388,0.033,-0.0059
1232,0.0438,0.0494,0.0056
1234,0.0399,0.029,-0.0109
1236,0.0432,0.0693,0.026
1238,0.056,0.0453,-0.0107
1240,0.0423,0.022,-0.0203
1242,0.0471,0.0249,-0.0222
1244,0.0389,0.0363,-0.0026
1246,0.0304,0.0438,0.0134
1248,0.0257,0.0303,0.0046
1250,0.0509,0.0452,-0.0057
1252,0.0564,0.0395,-0.0169
1254,0.0529,0.0491,-0.0038
1256,0.0403,0.0417,0.0014
1258,0.0399,0.0536,0.0138
1260,0.0403,0.0434,0.003
1262,0.0633,0.0261,-0.0372
1264,0.0332,0.0302,-0.003
1266,0.0485,0.0349,-0.0136
1268,0.059,0.0497,-0.0093
1270,0.0621,0.0324,-0.0297
1272,0.0542,0.0517,-0.0025
1274,0.0439,0.0437,-0.0002
1276,0.0396,0.0307,-0.0088
1278,0.0247,0.0538,0.0291
1280,0.0432,0.0417,-0.0015
1282,0.022,0.0232,0.0012
1284,0.0501,0.0482,-0.002
1286,0.031,0.041,0.01
1288,0.0518,0.0243,-0.0275
1290,0.0406,0.0525,0.0119
1292,0.041,0.0344,-0.0066
1294,0.0629,0.0512,-0.0117
1296,0.0402,0.0485,0.0083
1298,0.0576,0.0402,-0.0174
1300,0.061,0.0393,-0.0217
1302,0.0536,0.0397,-0.0139
1304,0.0315,0.0397,0.0082
1306,0.0527,0.0502,-0.0025
1308,0.0441,0.0308,-0.0133
1310,0.046,0.0412,-0.0048
1312,0.0426,0.041,-0.0016
1314,0.0416,0.032,-0.0096
1316,0.0409,0.0436,0.0027
1318,0.0409,0.0418,0.0009
1320,0.0536,0.0608,0.0072
1322,0.0456,0.0308,-0.0149
1324,0.0504,0.0476,-0.0028
1326,0.0558,0.0511,-0.0046
1328,0.0479,0.0635,0.0156
1330,0.0598,0.0481,-0.0117
1332,0.0578,0.0528,-0.005
1334,0.0536,0.057,0.0034
1336,0.0528,0.0147,-0.0381
1338,0.0389,0.0594,0.0205
1340,0.0532,0.0517,-0.0015
1342,0.0407,0.036,-0.0047
1344,0.047,0.0103,-0.0367
1346,0.0508,0.0484,-0.0024
1348,0.0387,0.0442,0.0055
1350,0.0509,0.0566,0.0057
1352,0.0426,0.028,-0.0145
1354,0.0557,0.0582,0.0025
1356,0.0297,0.0372,0.0075
1358,0.0307,0.046,0.0153
1360,0.0508,0.0467,-0.0041
1362,0.0429,0.0839,0.041
1364,0.0578,0.0257,-0.0322
1366,0.0547,0.0337,-0.0211
1368,0.0563,0.0555,-0.0009
1370,0.0512,0.0394,-0.0118
1372,0.049,0.0223,-0.0267
1374,0.0489,0.0418,-0.0071
1376,0.0323,0.0517,0.0194
1378,0.0275,0.0561,0.0286
1380,0.0413,0.0651,0.0238
1382,0.052,0.0409,-0.0111
1384,0.0807,0.0475,-0.0333
1386,0.0574,0.0003,-0.057
1388,0.0486,0.047,-0.0016
1390,0.049,0.033,-0.0161
1392,0.0581,0.0556,-0.0025
1394,0.0544,0.0436,-0.0108
1396,0.0491,0.0441,-0.005
1398,0.0525,0.0511,-0.0014
1400,0.0759,0.0268,-0.0491
1402,0.0397,0.0373,-0.0024
1404,0.0646,0.0475,-0.0171
1406,0.0453,0.0464,0.0011
1408,0.066,0.0461,-0.02
1410,0.0307,0.0488,0.0181
1412,0.0538,0.0435,-0.0103
1414,0.0258,0.063,0.0372
1416,0.0607,0.0513,-0.0093
1418,0.0653,0.0444,-0.0209
1420,0.0376,0.0489,0.0112
1422,0.0446,0.0482,0.0036
1424,0.0118,0.0386,0.0268
1426,0.0344,0.0458,0.0115
1428,0.0342,0.0535,0.0193
1430,0.0486,0.0308,-0.0178
1432,0.0399,0.0307,-0.0092
1434,0.0609,0.0425,-0.0183
1436,0.0503,0.038,-0.0123
1438,0.0408,0.052,0.0112
1440,0.0412,0.029,-0.0122
1442,0.0601,0.0333,-0.0268
1444,0.0528,0.0228,-0.03
1446,0.0561,0.0561,0
1448,0.0593,0.027,-0.0323
1450,0.039,0.0247,-0.0144
1452,0.0469,0.0388,-0.0081
1454,0.036,0.0527,0.0167
1456,0.0478,0.0441,-0.0037
1458,0.0288,0.0303,0.0015
1460,0.0689,0.0616,-0.0073
1462,0.0412,0.0345,-0.0067
1464,0.047,0.055,0.0079
1466,0.0306,0.0341,0.0035
1468,0.0337,0.0255,-0.0082
1470,0.0459,0.0277,-0.0182
1472,0.0472,0.0352,-0.012
1474,0.0611,0.0384,-0.0227
1476,0.0415,0.0386,-0.0028
1478,0.0463,0.0336,-0.0127
1480,0.0606,0.0384,-0.0222
1482,0.0501,0.0364,-0.0136
1484,0.0459,0.063,0.0171
1486,0.0578,0.0687,0.0109
1488,0.0461,0.0396,-0.0064
1490,0.0372,0.0589,0.0216
1492,0.0583,0.0305,-0.0278
1494,0.0477,0.0216,-0.0261
1496,0.028,0.0061,-0.0219
1498,0.0591,0.0607,0.0016
1500,0.0692,0.0725,0.0033
1502,0.055,0.065,0.01
1504,0.0534,0.0437,-0.0097
1506,0.0547,0.0523,-0.0024
1508,0.0594,0.0498,-0.0097
1510,0.023,0.037,0.014
1512,0.0893,0.0294,-0.0598
1514,0.0343,0.0411,0.0068
1516,0.0693,0.0525,-0.0168
1518,0.0623,0.0305,-0.0317
1520,0.0664,0.0472,-0.0191
1522,0.0432,0.0457,0.0025
1524,0.0536,0.0606,0.007
1526,0.0457,0.0501,0.0044
1528,0.0441,0.061,0.0169
1530,0.0472,0.0437,-0.0035
1532,0.0461,0.0349,-0.0112
1534,0.0652,0.0531,-0.0121
1536,0.0234,0.0392,0.0158
1538,0.0338,0.0496,0.0158
1540,0.038,0.0241,-0.0139
1542,0.06,0.0276,-0.0323
1544,0.0582,0.0522,-0.006
1546,0.0477,0.0305,-0.0172
1548,0.0516,0.043,-0.0085
1550,0.0503,0.0327,-0.0177
1552,0.0463,0.0462,0
1554,0.0439,0.0251,-0.0187
1556,0.0402,0.018,-0.0223
1558,0.0601,0.0604,0.0003
1560,0.049,0.0363,-0.0128
1562,0.0604,0.051,-0.0093
1564,0.0469,0.051,0.004
1566,0.0453,0.0344,-0.0108
1568,0.0601,0.037,-0.0231
1570,0.045,0.0569,0.0119
1572,0.0506,0.038,-0.0127
1574,0.0503,0.0239,-0.0263
1576,0.0707,0.0511,-0.0197
1578,0.0653,0.0534,-0.0119
1580,0.0489,0.023,-0.0259
1582,0.0591,0.0377,-0.0214
1584,0.0419,0.0425,0.0006
1586,0.0637,0.0725,0.0088
1588,0.034,0.0665,0.0325
1590,0.0502,0.0554,0.0051
1592,0.0457,0.0515,0.0057
1594,0.0393,0.035,-0.0043
1596,0.0579,0.0536,-0.0044
1598,0.0519,0.0666,0.0147
1600,0.0341,0.0431,0.0091
1602,0.0747,0.0562,-0.0184
1604,0.0376,0.038,0.0005
1606,0.0423,0.0434,0.0011
1608,0.0572,0.0436,-0.0136
1610,0.0428,0.0463,0.0035
1612,0.0751,0.0379,-0.0372
1614,0.0372,0.0552,0.018
1616,0.0564,0.0395,-0.0169
1618,0.0478,0.06,0.0122
1620,0.0709,0.0637,-0.0072
1622,0.0715,0.0473,-0.0242
1624,0.0437,0.0477,0.004
1626,0.0715,0.0594,-0.012
1628,0.0703,0.0829,0.0127
1630,0.0771,0.0934,0.0163
1632,0.083,0.1002,0.0172
1634,0.0925,0.0989,0.0064
1636,0.1041,0.1031,-0.001
1638,0.0889,0.1448,0.056
1640,0.1212,0.141,0.0198
1642,0.1121,0.1751,0.063
1644,0.1037,0.1672,0.0635
1646,0.1252,0.1763,0.0511
1648,0.1713,0.2231,0.0518
1650,0.1873,0.2291,0.0418
1652,0.1699,0.2634,0.0934
1654,0.1792,0.2895,0.1103
1656,0.2107,0.2805,0.0698
1658,0.1864,0.2735,0.0871
1660,0.2276,0.3131,0.0855
1662,0.2005,0.3429,0.1424
1664,0.2143,0.3161,0.1017
1666,0.2204,0.3347,0.1142
1668,0.2264,0.3125,0.0862
1670,0.2481,0.3235,0.0754
1672,0.2128,0.3223,0.1095
1674,0.206,0.2844,0.0783
1676,0.2065,0.2842,0.0777
1678,0.199,0.2464,0.0474
1680,0.1575,0.2501,0.0927
1682,0.2075,0.2321,0.0245
1684,0.1702,0.2409,0.0707
1686,0.1435,0.2188,0.0753
1688,0.1461,0.188,0.042
1690,0.1319,0.1676,0.0357
1692,0.1077,0.1664,0.0586
1694,0.1134,0.1586,0.0452
1696,0.0943,0.1474,0.0531
1698,0.096,0.1163,0.0204
1700,0.0915,0.098,0.0064
1702,0.0775,0.0973,0.0198
1704,0.0741,0.0768,0.0027
1706,0.0575,0.0542,-0.0033
1708,0.0529,0.0817,0.0289
1710,0.0522,0.0661,0.0139
1712,0.0412,0.0703,0.029
1714,0.0638,0.0517,-0.0121
1716,0.0654,0.0655,0.0001
1718,0.0474,0.0558,0.0084
1720,0.0467,0.0743,0.0276
1722,0.0447,0.0428,-0.0019
1724,0.0404,0.0461,0.0057
1726,0.0535,0.0247,-0.0287
1728,0.0728,0.0495,-0.0233
1730,0.0696,0.0422,-0.0273
1732,0.0491,0.0529,0.0038
1734,0.0597,0.0654,0.0057
1736,0.0937,0.1319,0.0381
1738,0.1629,0.2394,0.0765
1740,0.2621,0.3788,0.1167
1742,0.4368,0.6282,0.1913
1744,0.6236,0.9778,0.3542
1746,0.8389,1.3266,0.4877
1748,1.0463,1.6223,0.576
1750,1.2005,1.853,0.6526
1752,1.2114,1.8942,0.6828
1754,1.1623,1.798,0.6357
1756,0.9981,1.5395,0.5414
1758,0.8044,1.214,0.4096
1760,0.5664,0.8544,0.2881
1762,0.3365,0.5233,0.1867
1764,0.1668,0.2552,0.0884
1766,0.0545,0.0498,-0.0047
1768,-0.0079,-0.0376,-0.0297
1770,-0.0423,-0.0941,-0.0518
1772,-0.0531,-0.0695,-0.0164
1774,-0.0186,-0.0906,-0.072
1776,-0.0134,0.0011,0.0145
1778,0.03,0.0272,-0.0028
1780,0.0647,0.0437,-0.021
1782,0.0738,0.06,-0.0138
1784,0.0813,0.0785,-0.0028
1786,0.0799,0.0751,-0.0048
1788,0.1033,0.0969,-0.0064
1790,0.0995,0.0885,-0.011
1792,0.092,0.0967,0.0048
1794,0.0743,0.0916,0.0173
1796,0.0948,0.093,-0.0017
1798,0.0915,0.1425,0.051
1800,0.0736,0.1249,0.0513
1802,0.1182,0.134,0.0157
1804,0.0763,0.1049,0.0286
1806,0.1082,0.1413,0.0331
1808,0.1211,0.1358,0.0147
1810,0.1081,0.1621,0.0539
1812,0.1114,0.1793,0.0679
1814,0.1154,0.1477,0.0323
1816,0.1351,0.1712,0.0361
1818,0.1322,0.182,0.0498
1820,0.158,0.2131,0.0552
1822,0.1379,0.1647,0.0269
1824,0.1383,0.216,0.0777
1826,0.1437,0.2049,0.0612
1828,0.1383,0.2103,0.0721
1830,0.1619,0.2025,0.0406
1832,0.1789,0.2143,0.0354
1834,0.1837,0.225,0.0414
1836,0.1807,0.2268,0.0461
1838,0.1667,0.2706,0.1038
1840,0.1861,0.2736,0.0875
1842,0.1983,0.2786,0.0802
1844,0.192,0.2709,0.0789
1846,0.216,0.3131,0.0971
1848,0.2027,0.3157,0.113
1850,0.2358,0.3185,0.0827
1852,0.2389,0.3543,0.1154
1854,0.2423,0.3343,0.0921
1856,0.262,0.3776,0.1156
1858,0.2504,0.3833,0.133
1860,0.2772,0.405,0.1278
1862,0.2736,0.3986,0.1251
1864,0.2767,0.4325,0.1558
1866,0.2971,0.4278,0.1307
1868,0.2969,0.4262,0.1293
1870,0.3144,0.4655,0.1512
1872,0.3063,0.437,0.1306
1874,0.2938,0.4777,0.1839
1876,0.3321,0.4709,0.1388
1878,0.3277,0.4882,0.1605
1880,0.3154,0.4862,0.1707
1882,0.3354,0.4993,0.164
1884,0.2989,0.5056,0.2067
1886,0.3331,0.4954,0.1623
1888,0.3209,0.4965,0.1756
1890,0.3216,0.5011,0.1795
1892,0.3332,0.4975,0.1644
1894,0.3225,0.4853,0.1628
1896,0.3176,0.4784,0.1608
1898,0.3196,0.4765,0.1569
1900,0.2987,0.4601,0.1614
1902,0.3092,0.4441,0.1349
1904,0.2842,0.433,0.1488
1906,0.2732,0.4263,0.1531
1908,0.2887,0.4202,0.1315
1910,0.2432,0.4115,0.1683
1912,0.2413,0.4024,0.1611
1914,0.2412,0.4045,0.1633
1916,0.2617,0.3562,0.0944
1918,0.214,0.3477,0.1338
1920,0.2282,0.3261,0.0979
1922,0.2184,0.3098,0.0914
1924,0.1971,0.2988,0.1018
1926,0.2031,0.2758,0.0727
1928,0.1949,0.28,0.0851
1930,0.1768,0.2559,0.0792
1932,0.1737,0.2252,0.0514
1934,0.1547,0.2118,0.0571
1936,0.1398,0.2146,0.0748
1938,0.1307,0.2033,0.0726
1940,0.1142,0.175,0.0609
1942,0.1255,0.1769,0.0514
1944,0.1314,0.1732,0.0418
1946,0.1113,0.118,0.0067
1948,0.1013,0.1435,0.0422
1950,0.1146,0.1394,0.0248
1952,0.1002,0.1235,0.0233
1954,0.0989,0.1231,0.0242
1956,0.0895,0.103,0.0135
1958,0.0682,0.0957,0.0275
1960,0.0881,0.0627,-0.0254
1962,0.0889,0.0885,-0.0004
1964,0.0658,0.0757,0.0099
1966,0.082,0.0801,-0.0019
1968,0.0802,0.0676,-0.0126
1970,0.0602,0.07,0.0098
1972,0.0748,0.0811,0.0062
1974,0.0623,0.0643,0.002
1976,0.0603,0.0541,-0.0062
1978,0.0521,0.0514,-0.0006
1980,0.0456,0.0742,0.0286
1982,0.0884,0.0204,-0.0679
1984,0.0649,0.046,-0.0188
1986,0.042,0.0511,0.0091
1988,0.0471,0.0836,0.0365
1990,0.0549,0.0482,-0.0067
1992,0.0413,0.061,0.0197
1994,0.0526,0.0492,-0.0034
1996,0.0567,0.0483,-0.0084
1998,0.044,0.0331,-0.0109
2000,0.0535,0.0646,0.0112
2002,0.0542,0.0262,-0.0281
2004,0.0489,0.0455,-0.0034
2006,0.0476,0.0484,0.0008
2008,0.0325,0.0291,-0.0034
2010,0.0455,0.0513,0.0058
2012,0.0688,0.0279,-0.0409
2014,0.0357,0.0384,0.0027
2016,0.0437,0.0558,0.0121
2018,0.0387,0.0601,0.0214
2020,0.0447,0.0506,0.0058
2022,0.0515,0.0389,-0.0126
2024,0.0593,0.0376,-0.0217
2026,0.0479,0.0397,-0.0082
2028,0.07,0.057,-0.013
2030,0.047,0.0429,-0.0041
2032,0.0633,0.0414,-0.0219
2034,0.0512,0.0614,0.0102
2036,0.0427,0.0367,-0.006
2038,0.0362,0.0465,0.0103
2040,0.0462,0.0402,-0.006
2042,0.0453,0.0277,-0.0176
2044,0.0434,0.0468,0.0034
2046,0.0439,0.0145,-0.0294
2048,0.0531,0.0492,-0.0039
2050,0.0673,0.0202,-0.0471
2052,0.0615,0.0372,-0.0243
2054,0.0421,0.0487,0.0066
2056,0.071,0.0516,-0.0195
2058,0.0627,0.0382,-0.0245
2060,0.0525,0.0563,0.0038
2062,0.0495,0.0612,0.0117
2064,0.063,0.0411,-0.0219
2066,0.0629,0.0345,-0.0284
2068,0.0575,0.0263,-0.0312
2070,0.0358,0.0413,0.0054
2072,0.0445,0.0522,0.0077
2074,0.0301,0.0456,0.0155
2076,0.0498,0.0556,0.0058
2078,0.0693,0.0436,-0.0257
2080,0.0513,0.0329,-0.0184
2082,0.0466,0.0419,-0.0047
2084,0.0465,0.0326,-0.0139
2086,0.0406,0.0554,0.0148
2088,0.056,0.0604,0.0043
2090,0.0394,0.0464,0.007
2092,0.066,0.0658,-0.0001
2094,0.0437,0.0439,0.0002
2096,0.0303,0.0536,0.0233
2098,0.0511,0.0401,-0.011
2100,0.0598,0.0556,-0.0042
2102,0.0385,0.0281,-0.0104
2104,0.0567,0.0282,-0.0285
2106,0.0452,0.0409,-0.0043
2108,0.0465,0.0349,-0.0116
2110,0.0445,0.0463,0.0018
2112,0.0576,0.0508,-0.0068
2114,0.0525,0.0528,0.0003
2116,0.0574,0.0255,-0.0319
2118,0.0532,0.0348,-0.0184
2120,0.0422,0.0246,-0.0176
2122,0.0372,0.0674,0.0302
2124,0.0583,0.0481,-0.0102
2126,0.0282,0.0311,0.0029
2128,0.0352,0.0354,0.0002
2130,0.0597,0.0356,-0.024
2132,0.0324,0.0285,-0.0039
2134,0.0464,0.0454,-0.0011
2136,0.0434,0.0535,0.0101
2138,0.0457,0.0435,-0.0022
2140,0.0502,0.0263,-0.0239
2142,0.0431,0.0612,0.0181
2144,0.0442,0.0276,-0.0166
2146,0.0484,0.0314,-0.017
2148,0.059,0.0457,-0.0133
2150,0.0505,0.0339,-0.0166
2152,0.0637,0.0462,-0.0175
2154,0.0578,0.0281,-0.0297
2156,0.0492,0.0433,-0.0059
2158,0.058,0.0556,-0.0024
2160,0.0665,0.0569,-0.0096
2162,0.0428,0.0242,-0.0186
2164,0.0582,0.03,-0.0282
2166,0.0411,0.0328,-0.0083
2168,0.0466,0.0506,0.004
2170,0.0429,0.0529,0.01
2172,0.0414,0.0301,-0.0113
2174,0.057,0.0342,-0.0229
2176,0.0654,0.0161,-0.0494
2178,0.0466,0.0179,-0.0287
2180,0.0685,0.0508,-0.0177
2182,0.0626,0.0395,-0.0231
2184,0.0417,0.0676,0.0259
2186,0.0461,0.0372,-0.0089
2188,0.0423,0.0371,-0.0052
2190,0.054,0.0457,-0.0082
2192,0.0447,0.0626,0.0179
2194,0.037,0.0347,-0.0024
2196,0.0446,0.0263,-0.0183
2198,0.0409,0.0619,0.0209
2200,0.0485,0.0281,-0.0204
2202,0.0575,0.0476,-0.0098
2204,0.0472,0.038,-0.0092
2206,0.0701,0.048,-0.0221
2208,0.0535,0.0355,-0.018
2210,0.0401,0.032,-0.0081
2212,0.0481,0.0326,-0.0154
2214,0.0291,0.0365,0.0074
2216,0.0531,0.0756,0.0225
2218,0.0373,0.0482,0.0109
2220,0.0542,0.0182,-0.036
2222,0.0398,0.0462,0.0064
2224,0.0271,0.0236,-0.0034
2226,0.0483,0.0217,-0.0266
2228,0.0535,0.021,-0.0325
2230,0.0387,0.0278,-0.0109
2232,0.0476,0.0294,-0.0182
2234,0.0548,0.0463,-0.0085
2236,0.051,0.0308,-0.0202
2238,0.059,0.0372,-0.0218
2240,0.0419,0.0269,-0.0149
2242,0.0519,0.0477,-0.0042
2244,0.0465,0.0399,-0.0066
2246,0.0244,0.0062,-0.0181
2248,0.045,0.0579,0.0129
2250,0.0451,0.0411,-0.004
2252,0.0513,0.0338,-0.0175
2254,0.0418,0.0301,-0.0117
2256,0.045,0.0417,-0.0033
2258,0.0586,0.0428,-0.0158
2260,0.03,0.0401,0.0101
2262,0.0374,0.0466,0.0092
2264,0.038,0.045,0.007
2266,0.0067,0.0374,0.0308
2268,0.0524,0.0382,-0.0143
2270,0.0486,0.0378,-0.0108
2272,0.0351,0.0266,-0.0084
2274,0.046,0.0546,0.0086
2276,0.0359,0.0384,0.0026
2278,0.0513,0.0727,0.0215
2280,0.0507,0.0443,-0.0064
2282,0.0374,0.037,-0.0004
2284,0.0317,0.0405,0.0088
2286,0.0329,0.048,0.0152
2288,0.0335,0.0376,0.0041
2290,0.0233,0.0741,0.0508
2292,0.0313,0.0264,-0.0049
2294,0.0549,0.0299,-0.0251
2296,0.0474,0.025,-0.0224
2298,0.0445,0.0434,-0.0012
2300,0.0517,0.0311,-0.0206
2302,0.0552,0.0784,0.0232
2304,0.0653,0.0548,-0.0106
2306,0.0596,0.0398,-0.0198
2308,0.0462,0.0349,-0.0113
2310,0.0259,0.0487,0.0228
2312,0.0277,0.0479,0.0201
2314,0.0543,0.0357,-0.0187
2316,0.0577,0.0366,-0.0211
2318,0.0423,0.0314,-0.011
2320,0.0526,0.0486,-0.004
2322,0.0479,0.0421,-0.0057
2324,0.0481,0.0607,0.0126
2326,0.0378,0.0371,-0.0007
2328,0.0632,0.0573,-0.006
2330,0.0301,0.034,0.0039
2332,0.04,0.0408,0.0008
2334,0.041,0.0288,-0.0122
2336,0.0423,0.0442,0.0018
2338,0.0284,0.0317,0.0033
2340,0.0348,0.0448,0.0101
2342,0.0489,0.0458,-0.0031
2344,0.034,0.0421,0.0081
2346,0.0482,0.0229,-0.0254
2348,0.0513,0.0167,-0.0346
2350,0.0473,0.0168,-0.0305
2352,0.0478,0.0405,-0.0074
2354,0.0433,0.0333,-0.01
2356,0.0305,0.0263,-0.0042
2358,0.0477,0.0448,-0.0029
2360,0.0404,0.0358,-0.0046
2362,0.0302,0.0637,0.0335
2364,0.0452,0.0409,-0.0043
2366,0.0289,0.046,0.0171
2368,0.0243,0.0257,0.0014
2370,0.0553,0.0323,-0.023
2372,0.034,0.0505,0.0165
2374,0.0107,0.038,0.0273
2376,0.0533,0.0312,-0.0221
2378,0.0533,0.0203,-0.033
2380,0.0475,0.0388,-0.0087
2382,0.0522,0.0361,-0.0161
2384,0.065,0.0403,-0.0248
2386,0.0632,0.0216,-0.0416
2388,0.0426,0.0269,-0.0157
2390,0.0425,0.0417,-0.0008
2392,0.0402,0.0594,0.0192
2394,0.0558,0.0435,-0.0123
2396,0.0384,0.0322,-0.0062
2398,0.0247,0.0024,-0.0223
2400,0.0464,0.0449,-0.0015
2402,0.0498,0.0603,0.0105
2404,0.0322,0.0487,0.0164
2406,0.0504,0.0475,-0.0029
2408,0.0418,0.0451,0.0033
2410,0.0288,0.0299,0.0011
2412,0.045,0.0556,0.0106
2414,0.0284,0.0318,0.0035
2416,0.0469,0.0401,-0.0068
2418,0.021,0.0473,0.0263
2420,0.0717,0.0252,-0.0465
2422,0.0561,0.0089,-0.0473
2424,0.0344,0.0365,0.0021
2426,0.0475,0.0202,-0.0273
2428,0.051,0.0066,-0.0444
2430,0.0366,0.032,-0.0046
2432,0.0398,0.0261,-0.0137
2434,0.0334,0.0527,0.0193
2436,0.0209,0.0454,0.0245
2438,0.0451,0.0526,0.0075
2440,0.0412,0.0246,-0.0165
2442,0.0204,0.0544,0.0341
2444,0.0643,0.0418,-0.0225
2446,0.0489,0.0665,0.0176
2448,0.0613,0.0654,0.0042
2450,0.0615,0.0611,-0.0005
2452,0.0762,0.0738,-0.0024
2454,0.0416,0.0815,0.04
2456,0.0845,0.0859,0.0014
2458,0.0711,0.0762,0.0051
2460,0.0705,0.136,0.0655
2462,0.1096,0.1454,0.0359
2464,0.0983,0.1546,0.0563
2466,0.1266,0.1576,0.031
2468,0.1214,0.1918,0.0704
2470,0.1213,0.2,0.0787
2472,0.1282,0.2344,0.1062
2474,0.158,0.2377,0.0797
2476,0.1746,0.2405,0.0659
2478,0.1761,0.2684,0.0923
2480,0.1855,0.3014,0.1159
2482,0.2067,0.3105,0.1038
2484,0.2096,0.3039,0.0943
2486,0.2023,0.3252,0.1229
2488,0.2269,0.3143,0.0874
2490,0.1952,0.3191,0.124
2492,0.1988,0.3175,0.1187
2494,0.2144,0.3063,0.0918
2496,0.2435,0.3092,0.0657
2498,0.2109,0.3149,0.104
2500,0.1889,0.2944,0.1054
2502,0.1622,0.2713,0.1091
2504,0.167,0.2388,0.0718
2506,0.1508,0.2282,0.0775
2508,0.1553,0.2087,0.0534
2510,0.1438,0.2069,0.0631
2512,0.1288,0.1591,0.0303
2514,0.1075,0.1854,0.0779
2516,0.1133,0.1471,0.0339
2518,0.0877,0.1174,0.0297
2520,0.0874,0.1158,0.0284
2522,0.0631,0.0806,0.0175
2524,0.0778,0.0927,0.015
2526,0.0657,0.0819,0.0162
2528,0.0794,0.0617,-0.0177
2530,0.0456,0.0647,0.0191
2532,0.0394,0.0254,-0.014
2534,0.0544,0.0283,-0.026
2536,0.0415,0.0408,-0.0007
2538,0.0324,0.0393,0.0069
2540,0.0403,0.0526,0.0123
2542,0.0438,0.0375,-0.0063
2544,0.0602,0.0414,-0.0188
2546,0.0278,0.026,-0.0018
2548,0.0462,0.0249,-0.0213
2550,0.0308,0.026,-0.0048
2552,0.0176,0.0252,0.0076
2554,0.0526,0.0385,-0.0141
2556,0.0585,0.0362,-0.0223
2558,0.0653,0.0686,0.0032
2560,0.0784,0.1514,0.0729
2562,0.1701,0.2808,0.1107
2564,0.3189,0.4773,0.1584
2566,0.5221,0.7816,0.2594
2568,0.7201,1.1055,0.3853
2570,0.9292,1.4625,0.5334
2572,1.1134,1.7168,0.6034
2574,1.2018,1.888,0.6862
2576,1.1811,1.8621,0.6811
2578,1.0914,1.6882,0.5968
2580,0.9189,1.4317,0.5128
2582,0.6592,1.0476,0.3884
2584,0.4564,0.6775,0.2211
2586,0.2414,0.3816,0.1401
2588,0.1081,0.133,0.0248
2590,0.0308,-0.0011,-0.0319
2592,-0.0495,-0.0939,-0.0443
2594,-0.046,-0.0937,-0.0477
2596,-0.0299,-0.11,-0.0801
2598,-0.0003,-0.0768,-0.0766
2600,-0.0187,-0.0268,-0.0081
2602,0.0446,-0.0082,-0.0528
2604,0.0417,0.0361,-0.0056
2606,0.0403,0.0513,0.011
2608,0.0693,0.0638,-0.0055
2610,0.0478,0.0739,0.0261
2612,0.0816,0.071,-0.0106
2614,0.0605,0.0821,0.0215
2616,0.0788,0.0782,-0.0006
2618,0.0856,0.0779,-0.0077
2620,0.0733,0.1023,0.0289
2622,0.0999,0.1121,0.0122
2624,0.0711,0.0864,0.0153
2626,0.0823,0.1112,0.0288
2628,0.0909,0.1038,0.0129
2630,0.1118,0.1297,0.0179
2632,0.0932,0.1519,0.0587
2634,0.1076,0.1458,0.0382
2636,0.1313,0.1445,0.0133
2638,0.0972,0.18,0.0829
2640,0.1009,0.1663,0.0654
2642,0.1223,0.1778,0.0555
2644,0.1381,0.1824,0.0443
2646,0.136,0.1901,0.0541
2648,0.1283,0.1863,0.058
2650,0.1475,0.2259,0.0785
2652,0.171,0.1906,0.0196
2654,0.1566,0.2097,0.0531
2656,0.1574,0.2253,0.0679
2658,0.1586,0.2546,0.096
2660,0.1808,0.2295,0.0487
2662,0.1773,0.2648,0.0875
2664,0.1772,0.2452,0.068
2666,0.1861,0.3012,0.1151
2668,0.1851,0.3145,0.1294
2670,0.2067,0.3074,0.1007
2672,0.2202,0.2808,0.0605
2674,0.2223,0.2816,0.0593
2676,0.2286,0.3386,0.11
2678,0.2451,0.3622,0.1171
2680,0.2489,0.3473,0.0984
2682,0.249,0.3698,0.1208
2684,0.2737,0.3917,0.1181
2686,0.2632,0.3939,0.1308
2688,0.2654,0.4278,0.1623
2690,0.2623,0.429,0.1666
2692,0.2973,0.4412,0.1438
2694,0.2734,0.4183,0.1449
2696,0.2766,0.474,0.1975
2698,0.3347,0.4485,0.1138
2700,0.2931,0.4651,0.172
2702,0.2996,0.462,0.1624
2704,0.3127,0.4825,0.1698
2706,0.3089,0.4939,0.185
2708,0.3212,0.4767,0.1555
2710,0.3027,0.4873,0.1845
2712,0.3287,0.4764,0.1477
2714,0.3005,0.4655,0.1649
2716,0.3115,0.4787,0.1672
2718,0.2968,0.4782,0.1814
2720,0.3083,0.4745,0.1662
2722,0.2943,0.4276,0.1333
2724,0.3057,0.4428,0.1371
2726,0.2906,0.4409,0.1503
2728,0.2761,0.4149,0.1388
2730,0.2708,0.4168,0.146
2732,0.2535,0.3897,0.1362
2734,0.2468,0.3858,0.139
2736,0.243,0.3904,0.1474
2738,0.2304,0.3314,0.101
2740,0.2464,0.3405,0.0941
2742,0.2429,0.3312,0.0883
2744,0.2217,0.3335,0.1118
2746,0.188,0.311,0.123
2748,0.1861,0.2711,0.085
2750,0.1594,0.2694,0.1099
2752,0.1921,0.2329,0.0408
2754,0.1663,0.2497,0.0834
2756,0.1598,0.2309,0.0711
2758,0.146,0.2285,0.0825
2760,0.141,0.2057,0.0647
2762,0.1274,0.1841,0.0567
2764,0.1338,0.1637,0.0298
2766,0.1064,0.131,0.0246
2768,0.1047,0.1654,0.0608
2770,0.0936,0.1457,0.0521
2772,0.0795,0.1366,0.0571
2774,0.0958,0.123,0.0272
2776,0.0756,0.0991,0.0235
2778,0.0928,0.1058,0.013
2780,0.09,0.1037,0.0137
2782,0.0661,0.0783,0.0122
2784,0.0678,0.0865,0.0188
2786,0.0712,0.0749,0.0036
2788,0.0707,0.036,-0.0347
2790,0.0728,0.0363,-0.0365
2792,0.0443,0.0722,0.0279
2794,0.0512,0.0741,0.0229
2796,0.0496,0.0558,0.0062
2798,0.0281,0.0372,0.0091
2800,0.0518,0.0533,0.0015
2802,0.0817,0.0558,-0.0259
2804,0.0573,0.0423,-0.015
2806,0.0463,0.0175,-0.0288
2808,0.058,0.0388,-0.0191
2810,0.0489,0.0394,-0.0094
2812,0.0554,0.0191,-0.0363
2814,0.0495,0.0384,-0.0112
2816,0.0352,0.0572,0.022
2818,0.0307,0.048,0.0173
2820,0.0257,0.0113,-0.0145
2822,0.0262,0.0529,0.0267
2824,0.0188,0.027,0.0082
2826,0.0396,0.0269,-0.0126
2828,0.0478,0.0225,-0.0252
2830,0.0485,0.0128,-0.0357
2832,0.0274,0.0371,0.0098
2834,0.017,0.0312,0.0142
2836,0.0325,0.0295,-0.003
2838,0.0394,0.0451,0.0057
2840,0.0237,0.0385,0.0148
2842,0.0429,0.0109,-0.032
2844,0.0447,0.045,0.0003
2846,0.0156,0.0187,0.0031
2848,0.0245,0.0285,0.004
2850,0.0179,0.029,0.0111
2852,0.0431,0.0388,-0.0043
2854,0.0557,0.0429,-0.0128
2856,0.05,0.0273,-0.0227
2858,0.036,0.0171,-0.0189
2860,0.0297,0.0307,0.0009
2862,0.0277,0.0303,0.0026
2864,0.0221,0.0337,0.0116
2866,0.0544,0.0251,-0.0293
2868,0.0247,0.0244,-0.0003
2870,0.0505,0.0216,-0.0289
2872,0.0316,0.0362,0.0046
2874,0.0311,0.052,0.0209
2876,0.013,0.0494,0.0364
2878,0.0358,0.0173,-0.0186
2880,0.0129,0.0104,-0.0025
2882,0.0419,0.02,-0.0219
2884,0.0245,0.0296,0.0051
2886,0.0396,0.0312,-0.0085
2888,0.0453,0.046,0.0007
2890,0.0459,0.024,-0.022
2892,0.0523,0.0434,-0.0089
2894,0.0372,0.027,-0.0102
2896,0.035,0.0312,-0.0038
2898,0.0341,0.0338,-0.0002
2900,0.0122,-0.0008,-0.0131
2902,0.0165,0.0564,0.0399
2904,0.0336,0.0044,-0.0292
2906,0.0306,0.0394,0.0088
2908,0.024,0.0114,-0.0126
2910,0.0529,0.0132,-0.0397
2912,0.0699,0.0075,-0.0624
2914,0.035,0.0417,0.0067
2916,0.0328,0.0263,-0.0065
2918,0.0115,0.0134,0.0019
2920,0.0404,0.0142,-0.0262
2922,0.0298,0.0281,-0.0017
2924,0.0239,0.0221,-0.0018
2926,0.0456,0.0248,-0.0207
2928,0.0349,0.0221,-0.0128
2930,0.0176,0.0372,0.0197
2932,0.0416,0.0382,-0.0033
2934,0.0417,0.0141,-0.0276
2936,0.0432,0.006,-0.0372
2938,0.0383,0.027,-0.0113
2940,0.0202,0.0569,0.0367
2942,0.0419,0.0383,-0.0035
2944,0.0231,0.018,-0.0051
2946,0.0157,0.046,0.0303
2948,0.0169,0.0243,0.0074
2950,0.03,0.0285,-0.0015
2952,0.0392,0.0352,-0.004
2954,0.0315,0.021,-0.0106
2956,0.0243,0.0314,0.0071
2958,0.0289,0.0103,-0.0187
2960,0.0276,0.0146,-0.0131
2962,0.0239,0.013,-0.0109
2964,0.045,0.0244,-0.0206
2966,0.0283,0.0274,-0.0008
2968,0.02,0.0129,-0.0071
2970,0.0013,0.0143,0.013
2972,0.0355,0.0208,-0.0147
2974,0.0309,0.0306,-0.0002
2976,0.0196,0.0554,0.0358
2978,0.0233,0.035,0.0117
2980,0.0198,0.0276,0.0078
2982,0.0198,0.0113,-0.0084
2984,0.0356,0.0438,0.0082
2986,0.0499,0.0243,-0.0256
2988,0.0473,0.0416,-0.0057
2990,0.0308,0.0327,0.0018
2992,0.0362,0.0287,-0.0075
2994,0.0382,0.0326,-0.0056
2996,0.0276,0.0256,-0.002
2998,0.0084,0.0249,0.0165
3000,0.0197,0.0173,-0.0024
3002,0.0227,0.0228,0.0001
3004,0.0507,0.048,-0.0027
3006,0.0181,0.0282,0.0101
3008,0.0185,0.0522,0.0337
3010,0.0414,0.0484,0.007
3012,0.0306,0.0159,-0.0148
3014,0.0375,0.0222,-0.0152
3016,0.051,0.0083,-0.0427
3018,0.0415,0.0209,-0.0206
3020,0.0324,0.0308,-0.0017
3022,0.0162,0.0312,0.015
3024,0.0348,0.0226,-0.0122
3026,0.0484,0.046,-0.0025
3028,0.0193,0.0452,0.0259
3030,0.0449,0.0069,-0.0379
3032,0.0272,0.0153,-0.0119
3034,0.0281,0.0071,-0.021
3036,-0.0023,0.0125,0.0148
3038,0.018,0.0222,0.0042
3040,0.0323,0.0358,0.0035
3042,0.0216,0.042,0.0204
3044,0.0395,0.0193,-0.0201
3046,0.034,0.0125,-0.0216
3048,0.0249,0.0194,-0.0055
3050,0.0245,0.0355,0.0109
3052,0.0489,0.0414,-0.0075
3054,0.0455,0.0481,0.0027
3056,0.0097,0.0323,0.0226
3058,0.0178,-0.0017,-0.0195
3060,0.029,0.0291,0.0001
3062,0.0233,0.0281,0.0048
3064,0.0214,0.0131,-0.0083
3066,0.0321,0.0259,-0.0062
3068,0.0281,0.0298,0.0017
3070,0.0466,0.0419,-0.0048
3072,0.0327,0.0093,-0.0234
3074,0.027,0.0054,-0.0216
3076,0.0367,0.0116,-0.0251
3078,0.021,0.045,0.0241
3080,0.0253,0.0224,-0.0029
3082,0.0319,0.0556,0.0236
3084,0.0309,0.0166,-0.0144
3086,0.0121,0.0148,0.0027
3088,0.0179,0.0077,-0.0102
3090,0.0081,0.0213,0.0133
3092,0.0208,0.0282,0.0074
3094,0.0327,0.0217,-0.011
3096,0.0088,0.0167,0.0079
3098,0.0242,0.0094,-0.0148
3100,0.0358,0.029,-0.0068
3102,0.0208,0.0089,-0.012
3104,0.0365,0.0417,0.0052
3106,0.0109,0.0127,0.0018
3108,0.0105,0.0199,0.0094
3110,0.0207,0.0274,0.0067
3112,0.0409,0.0044,-0.0365
3114,0.0178,-0.0057,-0.0235
3116,0.0299,0.0317,0.0018
3118,0.042,-0.0025,-0.0445
3120,0.0308,0.0365,0.0057
3122,0.0314,0.0469,0.0155
3124,0.0271,0.0317,0.0046
3126,0.0317,0.0388,0.0071
3128,0.017,0.0236,0.0066
3130,0.0151,-0.0087,-0.0238
3132,0.0238,0.0208,-0.003
3134,0.0033,0.0197,0.0164
3136,0.0186,0.0103,-0.0082
3138,0.039,0.0152,-0.0238
3140,-0.0026,0.0334,0.036
3142,0.0185,0.0117,-0.0067
3144,0.0228,0.0162,-0.0067
3146,0.0285,0.0106,-0.0179
3148,0.0369,0.0132,-0.0237
3150,0.015,0.0294,0.0145
3152,0.0415,0.015,-0.0265
3154,0.0298,0.0193,-0.0105
3156,0.038,0.0097,-0.0283
3158,0.0195,0.0465,0.027
3160,0.0117,0.0358,0.0242
3162,0.0124,0.0224,0.0099
3164,0.0214,0.0262,0.0047
3166,0.019,0.0301,0.011
3168,0.033,0.0231,-0.0099
3170,0.0043,0.0337,0.0294
3172,0.0337,0.0102,-0.0235
3174,0.027,0.0321,0.005
3176,0.0222,0.011,-0.0112
3178,0.0056,0.0215,0.0159
3180,0.015,0.0287,0.0137
3182,0.0301,0.0334,0.0032
3184,0.036,0.0275,-0.0085
3186,0.0163,0.0192,0.0029
3188,0.0147,0.0166,0.002
3190,0.0346,0.0097,-0.0249
3192,0.0351,0.0262,-0.0089
3194,0.0226,0.0195,-0.0031
3196,0.0494,0.0319,-0.0175
3198,0.0266,0.0332,0.0066
3200,0.0195,0.0104,-0.0091
3202,0.0444,0.0249,-0.0195
3204,0.0152,0.0212,0.006
3206,0.0169,0.0077,-0.0092
3208,0.0011,0.0196,0.0185
3210,0,0.0097,0.0097
3212,0.0251,0.0272,0.002
3214,0.0282,0.0249,-0.0034
3216,0.0055,0.0236,0.0181
3218,0.0047,0.0156,0.0108
3220,0.017,0.0204,0.0034
3222,0.0043,0.0357,0.0313
3224,-0.0002,0.0143,0.0144
3226,0.0421,0.0251,-0.017
3228,0.0268,0.0173,-0.0095
3230,0.0177,0.0213,0.0036
3232,0.0085,0.0135,0.005
3234,0.0136,0.0342,0.0206
3236,0.0392,0.0231,-0.0162
3238,0.0307,0.0222,-0.0085
3240,0.034,0.0128,-0.0212
3242,0.0147,0.0357,0.0211
3244,0.0169,0.0409,0.024
3246,-0.0002,-0.0032,-0.003
3248,0.004,0.0119,0.0079
3250,0.0173,0.0153,-0.0019
3252,0.0315,0.004,-0.0275
3254,0.0186,-0.0014,-0.0199
3256,0.0175,0.0226,0.0051
3258,0.0264,0.023,-0.0034
3260,0.0243,0.0287,0.0044
3262,0.0241,0.0353,0.0112
3264,0.0226,0.0182,-0.0044
3266,0.0281,0.0066,-0.0214
3268,0.0083,0.0397,0.0314
3270,0.0101,0.0259,0.0157
3272,0.047,0.0333,-0.0137
3274,0.0334,0.0279,-0.0055
3276,0.0382,0.0545,0.0163
3278,0.0338,0.065,0.0312
3280,0.0425,0.082,0.0395
3282,0.0931,0.085,-0.0081
3284,0.0555,0.0742,0.0186
3286,0.0721,0.0906,0.0185
3288,0.0723,0.0798,0.0075
3290,0.099,0.1235,0.0246
3292,0.1034,0.1581,0.0547
3294,0.0927,0.1473,0.0546
3296,0.1259,0.1694,0.0435
3298,0.1201,0.1926,0.0725
3300,0.1688,0.2288,0.06
3302,0.1455,0.2454,0.0999
3304,0.1439,0.2286,0.0846
3306,0.2125,0.2445,0.0321
3308,0.174,0.2737,0.0997
3310,0.198,0.2887,0.0908
3312,0.2136,0.2906,0.0769
3314,0.1975,0.291,0.0935
3316,0.2053,0.3171,0.1118
3318,0.192,0.3027,0.1107
3320,0.1791,0.3126,0.1335
3322,0.1954,0.276,0.0806
3324,0.1881,0.2936,0.1055
3326,0.1627,0.2748,0.1122
3328,0.1588,0.2336,0.0748
3330,0.1527,0.2287,0.076
3332,0.1445,0.1925,0.048
3334,0.1169,0.1687,0.0519
3336,0.1023,0.1662,0.064
3338,0.1102,0.1457,0.0355
3340,0.0956,0.1532,0.0576
3342,0.0663,0.0946,0.0284
3344,0.0697,0.0874,0.0177
3346,0.0457,0.0956,0.0499
3348,0.0476,0.0587,0.0111
3350,0.0451,0.0685,0.0234
3352,0.0276,0.0587,0.031
3354,0.0278,0.0551,0.0274
3356,0.0348,0.0232,-0.0116
3358,0.0397,0.0367,-0.0029
3360,0.0057,0.0335,0.0278
3362,0.0089,0.0435,0.0345
3364,0.0263,0.0422,0.0158
3366,0.0265,0.0414,0.015
3368,0.0384,0.0289,-0.0095
3370,0.0212,0.0116,-0.0096
3372,0.0096,0.0159,0.0064
3374,0.0118,0.0187,0.0069
3376,0.0291,0.0159,-0.0132
3378,0.0271,0.0347,0.0076
3380,0.0252,0.0051,-0.0202
3382,0.0416,0.0197,-0.0219
3384,0.0716,0.0928,0.0212
3386,0.0985,0.1654,0.0668
3388,0.2015,0.3268,0.1253
3390,0.3586,0.5658,0.2073
3392,0.5667,0.8818,0.3151
3394,0.778,1.2192,0.4412
3396,0.9608,1.5407,0.5799
3398,1.1162,1.7911,0.6749
3400,1.1898,1.8814,0.6916
3402,1.121,1.8255,0.7046
3404,0.976,1.5825,0.6065
3406,0.7954,1.2459,0.4505
3408,0.5626,0.8893,0.3267
3410,0.3472,0.5308,0.1836
3412,0.159,0.2361,0.077
3414,0.0385,0.0675,0.029
3416,-0.0271,-0.0659,-0.0388
3418,-0.0592,-0.141,-0.0819
3420,-0.0757,-0.1036,-0.0279
3422,-0.0497,-0.0987,-0.049
3424,-0.0302,-0.0986,-0.0684
3426,-0.0221,-0.0254,-0.0033
3428,-0.0057,-0.0035,0.0022
3430,0.0076,0.0267,0.0191
3432,0.029,0.0438,0.0148
3434,0.0386,0.0123,-0.0262
3436,0.0206,0.0524,0.0317
3438,0.0141,0.0396,0.0255
3440,0.0454,0.0566,0.0112
3442,0.0557,0.0769,0.0212
3444,0.0442,0.0796,0.0354
3446,0.0589,0.0968,0.0378
3448,0.0607,0.0965,0.0358
3450,0.0673,0.0826,0.0152
3452,0.0498,0.0926,0.0428
3454,0.0679,0.1178,0.05
3456,0.0494,0.0887,0.0392
3458,0.0812,0.1183,0.0371
3460,0.0997,0.1277,0.028
3462,0.1029,0.0973,-0.0056
3464,0.0759,0.1405,0.0646
3466,0.1127,0.1344,0.0217
3468,0.0879,0.1416,0.0538
3470,0.1043,0.1566,0.0522
3472,0.112,0.167,0.055
3474,0.1237,0.1758,0.0521
3476,0.1231,0.1787,0.0556
3478,0.1372,0.1915,0.0544
3480,0.1128,0.2092,0.0965
3482,0.1427,0.2158,0.0731
3484,0.1316,0.2057,0.0741
3486,0.1517,0.227,0.0753
3488,0.1359,0.2264,0.0905
3490,0.1329,0.2461,0.1132
3492,0.1585,0.2676,0.1092
3494,0.1791,0.2823,0.1031
3496,0.1876,0.2983,0.1107
3498,0.1859,0.3085,0.1226
3500,0.2008,0.3046,0.1038
3502,0.19,0.3158,0.1258
3504,0.2139,0.3098,0.0959
3506,0.2119,0.3608,0.1489
3508,0.2257,0.3338,0.1081
3510,0.2422,0.3721,0.1299
3512,0.257,0.3854,0.1285
3514,0.2429,0.4026,0.1597
3516,0.2742,0.4087,0.1344
3518,0.2568,0.4288,0.172
3520,0.2589,0.4234,0.1644
3522,0.2888,0.438,0.1492
3524,0.2815,0.4477,0.1661
3526,0.2848,0.4412,0.1564
3528,0.2779,0.4882,0.2103
3530,0.2834,0.4539,0.1705
3532,0.281,0.4593,0.1782
3534,0.2735,0.4519,0.1784
3536,0.2847,0.4632,0.1785
3538,0.301,0.4599,0.1589
3540,0.2883,0.4339,0.1456
3542,0.2745,0.4413,0.1668
3544,0.2844,0.4588,0.1744
3546,0.2684,0.4394,0.171
3548,0.2466,0.4409,0.1942
3550,0.2561,0.4125,0.1564
3552,0.2576,0.3987,0.1411
3554,0.2574,0.414,0.1566
3556,0.2347,0.3964,0.1617
3558,0.227,0.3654,0.1384
3560,0.2203,0.3451,0.1248
3562,0.2046,0.3544,0.1499
3564,0.1928,0.3031,0.1103
3566,0.2004,0.3137,0.1133
3568,0.1694,0.2979,0.1285
3570,0.1803,0.2833,0.103
3572,0.161,0.2645,0.1035
3574,0.1643,0.2435,0.0792
3576,0.149,0.268,0.119
3578,0.1375,0.2186,0.0811
3580,0.1223,0.2087,0.0864
3582,0.1319,0.1619,0.03
3584,0.0862,0.168,0.0819
3586,0.1115,0.1587,0.0473
3588,0.1233,0.1497,0.0264
3590,0.1121,0.1478,0.0357
3592,0.1138,0.1309,0.0171
3594,0.0616,0.1255,0.0639
3596,0.0687,0.0715,0.0028
3598,0.0628,0.0775,0.0147
3600,0.0533,0.0949,0.0416
3602,0.0574,0.0847,0.0273
3604,0.051,0.0772,0.0262
3606,0.0501,0.0854,0.0353
3608,0.0253,0.068,0.0427
3610,0.0248,0.0362,0.0114
3612,0.0271,0.0445,0.0174
3614,0.024,0.0353,0.0113
3616,0.0275,0.0385,0.011
3618,0.0476,0.0367,-0.011
3620,0.0215,0.0287,0.0072
3622,0.0095,0.0218,0.0123
3624,0.0272,0.0104,-0.0168
3626,0.0143,0.0208,0.0065
3628,0.0148,0.0007,-0.014
3630,0.0173,0.0327,0.0154
3632,0.0101,0.0268,0.0167
3634,-0.0072,-0.0011,0.006
3636,0.0243,-0.006,-0.0303
3638,0.0308,-0.0043,-0.0351
3640,0.0117,-0.0081,-0.0197
3642,0.0248,0.0312,0.0064
3644,0.0035,0.0129,0.0094
3646,-0.0033,0.0325,0.0358
3648,0.0169,0.0159,-0.0011
3650,0.0232,0.0126,-0.0106
3652,0.021,0.0202,-0.0008
3654,0.0145,0.0187,0.0042
3656,0.0219,0.0038,-0.018
3658,0.0111,0.0156,0.0045
3660,-0.0016,-0.0029,-0.0013
3662,0.0036,0.0131,0.0095
3664,0.0085,0.019,0.0106
3666,0.0082,-0.0003,-0.0085
3668,0.0067,0.0184,0.0117
3670,0.0127,0.0194,0.0067
3672,-0.0056,0.0065,0.0121
3674,0.0064,0.033,0.0266
3676,-0.004,-0.0044,-0.0004
3678,-0.0175,0.0062,0.0236
3680,0.0099,-0.0094,-0.0193
3682,0.0202,0.0002,-0.02
3684,0.0321,-0.0179,-0.05
3686,0.0021,0.0254,0.0233
3688,0.0131,0.0214,0.0084
3690,0.0015,-0.0115,-0.0129
3692,0.0059,-0.0037,-0.0096
3694,0.007,-0.0021,-0.0092
3696,-0.0059,-0.0035,0.0025
3698,-0.0291,-0.0041,0.025
3700,-0.0175,-0.0081,0.0094
3702,0.0075,-0.0138,-0.0213
3704,-0.006,0.0139,0.0199
3706,0.0125,-0.0076,-0.0201
3708,-0.012,0.0171,0.0291
3710,0.0033,0.0009,-0.0024
3712,0.0112,0.0125,0.0012
3714,0.0289,-0.0128,-0.0417
3716,0.0172,-0.02,-0.0372
3718,0.0073,0.0064,-0.0009
3720,0.0197,0.001,-0.0187
3722,-0.0017,-0.0029,-0.0012
3724,0.0158,0.0177,0.0019
3726,0.0053,0.0085,0.0032
3728,0.002,0.0012,-0.0008
3730,-0.0103,-0.0035,0.0068
3732,0.0051,0.0158,0.0107
3734,0.0021,-0.0137,-0.0158
3736,0.0204,0.0007,-0.0197
3738,-0.0054,0.0048,0.0102
3740,-0.0107,-0.0108,-0.0001
3742,0.0006,0.026,0.0254
3744,0.0025,-0.0107,-0.0132
3746,-0.0067,0.0062,0.0129
3748,0.0068,-0.0041,-0.0109
3750,0.0171,0.0041,-0.013
3752,-0.0011,-0.0221,-0.021
3754,0.0053,0.012,0.0067
3756,-0.0167,0.0331,0.0498
3758,-0.0112,0,0.0112
3760,0.0031,0.003,-0.0002
3762,-0.0143,-0.0054,0.0088
3764,0.0136,-0.0071,-0.0207
3766,-0.0043,0.0042,0.0085
3768,-0.0032,0.001,0.0042
3770,0.0023,0.0039,0.0016
3772,-0.0013,0.0092,0.0105
3774,0.0008,0.0077,0.0069
3776,0.0046,-0.0185,-0.0231
3778,-0.0026,-0.0031,-0.0005
3780,0.0193,-0.0083,-0.0276
3782,-0.0029,-0.0018,0.0011
3784,0.0071,0.0057,-0.0014
3786,-0.0006,-0.0077,-0.007
3788,-0.0071,0.0017,0.0087
3790,-0.0096,-0.0105,-0.0009
3792,-0.0022,-0.0215,-0.0193
3794,0.0293,-0.0236,-0.0529
3796,0.0215,-0.0039,-0.0254
3798,-0.0274,0.0155,0.043
3800,0.0024,0.003,0.0006
3802,-0.0021,0.0089,0.011
3804,0.0357,0.006,-0.0297
3806,0.001,-0.0226,-0.0236
3808,0.0013,-0.0096,-0.0108
3810,-0.0053,0.0012,0.0064
3812,0.0142,-0.0116,-0.0258
3814,0.0134,0.0214,0.0081
3816,-0.0052,0.0029,0.0081
3818,0.0203,0.0071,-0.0132
3820,0.009,0.0011,-0.008
3822,0.0245,0.0224,-0.0021
3824,0.0294,0.0035,-0.0259
3826,0.0146,-0.0117,-0.0263
3828,-0.0014,0.0112,0.0127
3830,0.001,-0.0084,-0.0094
3832,0.0121,0.0056,-0.0065
3834,-0.0191,0.028,0.0471
3836,-0.0068,0.0235,0.0304
3838,0.0223,0.0096,-0.0128
3840,0.0017,-0.011,-0.0127
3842,0.0018,-0.0004,-0.0022
3844,-0.0069,0.0041,0.011
3846,-0.0079,-0.0193,-0.0115
3848,0.0248,0.002,-0.0228
3850,-0.0093,-0.0041,0.0052
3852,0.006,-0.0169,-0.0229
3854,0.0023,-0.005,-0.0073
3856,-0.0242,-0.0043,0.0199
3858,-0.0005,-0.0026,-0.0021
3860,-0.0029,-0.0299,-0.027
3862,0.0082,0.0071,-0.0011
3864,0.011,0.0007,-0.0103
3866,-0.0159,-0.0093,0.0066
3868,0.0032,-0.0197,-0.023
3870,-0.0255,-0.0139,0.0116
3872,-0.0138,0.0197,0.0334
3874,-0.0095,-0.006,0.0035
3876,0.0124,-0.0329,-0.0453
3878,0.0071,0.0066,-0.0005
3880,-0.0018,0.0127,0.0145
3882,-0.0145,-0.0112,0.0033
3884,0.0096,-0.013,-0.0227
3886,0.0097,0.0129,0.0032
3888,0.0119,-0.0085,-0.0205
3890,-0.0005,0.0266,0.0272
3892,-0.0052,0.0133,0.0185
3894,0.0019,-0.0012,-0.0031
3896,-0.0001,0.0015,0.0015
3898,-0.0084,-0.0053,0.0032
3900,-0.0022,0.0379,0.0401
3902,-0.0021,-0.0044,-0.0023
3904,-0.0178,-0.0102,0.0076
3906,-0.0082,-0.0113,-0.0031
3908,-0.0004,0.0038,0.0041
3910,0.0095,0.0062,-0.0033
3912,0.0237,-0.0158,-0.0395
3914,0.0004,-0.0046,-0.005
3916,0.0052,-0.022,-0.0272
3918,-0.0012,-0.0052,-0.004
3920,-0.0095,-0.0032,0.0062
3922,-0.009,-0.0091,-0.0001
3924,-0.0077,-0.0294,-0.0217
3926,0.0163,-0.0171,-0.0334
3928,0.0003,0.0028,0.0026
3930,-0.0126,0.0054,0.018
3932,0.0099,0.0348,0.0249
3934,-0.0015,-0.0185,-0.0171
3936,-0.0282,-0.0215,0.0067
3938,0.0108,0.0016,-0.0093
3940,-0.0051,-0.0052,0
3942,0.0082,-0.0029,-0.0111
3944,0.0038,0.011,0.0071
3946,-0.0092,-0.0079,0.0014
3948,0.0108,-0.0115,-0.0222
3950,-0.0009,0.0106,0.0115
3952,-0.0094,-0.0031,0.0063
3954,-0.0144,-0.0189,-0.0044
3956,-0.0187,0.0137,0.0323
3958,-0.0011,0.003,0.0041
3960,0.0106,-0.0179,-0.0285
3962,-0.0244,-0.0164,0.0081
3964,-0.0012,0.0017,0.0029
3966,-0.0078,0.0199,0.0277
3968,-0.0077,0.0047,0.0124
3970,-0.0191,-0.0194,-0.0003
3972,-0.0192,-0.0049,0.0143
3974,-0.0094,-0.013,-0.0036
3976,0.0285,-0.0086,-0.0371
3978,0.0134,0.0023,-0.0111
3980,-0.0186,-0.0461,-0.0274
3982,0.0169,-0.0169,-0.0339
3984,0.0084,-0.0065,-0.0149
3986,0.0192,-0.0047,-0.0238
3988,0.0057,0.005,-0.0007
3990,-0.0106,-0.0119,-0.0013
3992,-0.0194,0.0031,0.0225
3994,0.0028,0.0197,0.017
3996,-0.0081,-0.0223,-0.0142
3998,0.0053,0.0123,0.007
4000,-0.0201,-0.0078,0.0122
4002,-0.0208,0.0067,0.0274
4004,-0.0075,0.0188,0.0263
4006,-0.0166,-0.0107,0.0059
4008,0.0013,-0.0176,-0.0189
4010,0.0178,-0.0206,-0.0384
4012,0.0064,0.0042,-0.0022
4014,0.0032,0.0023,-0.0008
4016,-0.0243,0.0013,0.0256
4018,-0.0096,-0.0122,-0.0026
4020,-0.004,0.0028,0.0068
4022,-0.0082,-0.0182,-0.0101
4024,-0.0075,-0.0083,-0.0007
4026,0.0038,-0.0186,-0.0224
4028,-0.0022,-0.0106,-0.0084
4030,-0.0181,-0.0046,0.0135
4032,-0.004,-0.0346,-0.0306
4034,-0.0028,-0.0144,-0.0115
4036,0.0126,0.0139,0.0014
4038,-0.0061,0.0103,0.0163
4040,-0.0267,-0.0206,0.0061
4042,-0.0122,-0.0025,0.0097
4044,-0.0103,0.0231,0.0334
4046,0.0076,-0.0132,-0.0207
4048,-0.0012,-0.0071,-0.0059
4050,-0.01,-0.0056,0.0044
4052,-0.0197,-0.0078,0.0119
4054,-0.0022,0.0182,0.0204
4056,-0.0236,-0.0081,0.0156
4058,-0.0006,0.032,0.0325
4060,-0.0145,-0.0194,-0.005
4062,-0.026,-0.0068,0.0192
4064,0.0036,-0.0343,-0.038
4066,-0.0014,-0.0015,-0.0001
4068,-0.0217,-0.0208,0.0009
4070,0.0001,-0.0063,-0.0064
4072,-0.0056,-0.0284,-0.0229
4074,-0.0113,0.0078,0.019
4076,0.0041,-0.0107,-0.0147
4078,-0.0177,-0.0215,-0.0038
4080,0.0014,-0.0125,-0.0139
4082,0.0015,0.0229,0.0214
4084,-0.0148,0.0376,0.0524
4086,0.0014,0.0027,0.0013
4088,0.0101,0.0225,0.0124
4090,0.027,0.0209,-0.0062
4092,0.0179,0.0226,0.0047
4094,0.0164,0.0378,0.0215
4096,0.007,0.0306,0.0236
4098,0.0293,0.0236,-0.0057
4100,0.0235,0.0554,0.0319
4102,0.0345,0.0738,0.0393
4104,0.0555,0.079,0.0235
4106,0.0337,0.0942,0.0604
4108,0.0593,0.1224,0.0631
4110,0.039,0.1028,0.0638
4112,0.0796,0.1008,0.0212
4114,0.0876,0.173,0.0854
4116,0.0946,0.1864,0.0917
4118,0.1336,0.199,0.0654
4120,0.1341,0.2049,0.0707
4122,0.1482,0.2383,0.0901
4124,0.148,0.2577,0.1097
4126,0.1719,0.2522,0.0803
4128,0.1639,0.2845,0.1206
4130,0.1711,0.2797,0.1086
4132,0.1781,0.2861,0.108
4134,0.1749,0.2623,0.0873
4136,0.1647,0.2744,0.1097
4138,0.1674,0.2762,0.1088
4140,0.1729,0.244,0.071
4142,0.1373,0.2609,0.1235
4144,0.1389,0.2427,0.1037
4146,0.1073,0.2065,0.0992
4148,0.1325,0.1947,0.0622
4150,0.1197,0.1898,0.0701
4152,0.0925,0.1551,0.0626
4154,0.0859,0.1261,0.0402
4156,0.0936,0.1012,0.0077
4158,0.0511,0.1131,0.062
4160,0.0524,0.0874,0.035
4162,0.0421,0.0524,0.0104
4164,0.0293,0.071,0.0417
4166,0.025,0.0441,0.019
4168,0.014,0.0583,0.0442
4170,0.0456,0.0181,-0.0275
4172,0.0252,0.0284,0.0032
4174,-0.0124,0.0153,0.0277
4176,0.0057,-0.0112,-0.0168
4178,-0.014,-0.0013,0.0128
4180,-0.0222,0.0224,0.0447
4182,0.0043,0.003,-0.0013
4184,-0.0153,-0.0118,0.0034
4186,-0.0277,-0.016,0.0117
4188,0.0025,0.003,0.0005
4190,0.0078,-0.024,-0.0318
4192,-0.0068,-0.0083,-0.0015
4194,0.0154,0.0017,-0.0137
4196,-0.0214,-0.0102,0.0112
4198,-0.0056,-0.0148,-0.0092
4200,-0.0066,0.005,0.0116
4202,0.0164,0.0474,0.031
4204,0.1044,0.1638,0.0594
4206,0.1954,0.3345,0.1391
4208,0.3631,0.5777,0.2146
4210,0.5465,0.9172,0.3707
4212,0.79,1.2459,0.456
4214,0.947,1.5648,0.6178
4216,1.1338,1.7956,0.6618
4218,1.1228,1.8543,0.7316
4220,1.0826,1.7593,0.6767
4222,0.9416,1.524,0.5825
4224,0.7118,1.1796,0.4679
4226,0.5046,0.8092,0.3046
4228,0.3026,0.4765,0.1739
4230,0.13,0.2046,0.0746
4232,0.0103,0.0246,0.0143
4234,-0.0672,-0.1017,-0.0344
4236,-0.1186,-0.1359,-0.0173
4238,-0.1145,-0.1455,-0.031
4240,-0.0777,-0.1411,-0.0634
4242,-0.0632,-0.075,-0.0118
4244,-0.0415,-0.0601,-0.0186
4246,-0.0387,-0.0386,0.0001
4248,0.0002,-0.0156,-0.0157
4250,-0.0246,0.028,0.0526
4252,0.0136,0.0138,0.0002
4254,-0.0075,0.0156,0.0231
4256,-0.0082,0.0476,0.0557
4258,0.0196,0.0506,0.031
4260,0.0202,0.0492,0.029
4262,0.0098,0.0611,0.0513
4264,0.0303,0.0482,0.0179
4266,0.0429,0.0591,0.0162
4268,0.0422,0.0344,-0.0079
4270,0.0308,0.0798,0.049
4272,0.0471,0.0851,0.038
4274,0.0335,0.0919,0.0584
4276,0.0479,0.0907,0.0429
4278,0.0471,0.0937,0.0466
4280,0.0419,0.1247,0.0828
4282,0.06,0.112,0.052
4284,0.0565,0.1057,0.0492
4286,0.0645,0.1265,0.062
4288,0.0372,0.1264,0.0892
4290,0.0593,0.1187,0.0594
4292,0.0955,0.1615,0.0661
4294,0.0863,0.1469,0.0607
4296,0.0934,0.1734,0.08
4298,0.0946,0.1865,0.0918
4300,0.1281,0.1739,0.0457
4302,0.0969,0.2015,0.1046
4304,0.1004,0.1942,0.0938
4306,0.1448,0.2152,0.0703
4308,0.144,0.2272,0.0832
4310,0.1317,0.2539,0.1221
4312,0.1422,0.2414,0.0992
4314,0.1527,0.2704,0.1177
4316,0.1604,0.2869,0.1265
4318,0.1477,0.2702,0.1225
4320,0.1787,0.2755,0.0968
4322,0.178,0.291,0.113
4324,0.202,0.3138,0.1118
4326,0.2101,0.3502,0.1401
4328,0.2144,0.3771,0.1627
4330,0.226,0.3725,0.1466
4332,0.2442,0.3503,0.1061
4334,0.2476,0.3747,0.1271
4336,0.2429,0.3828,0.1398
4338,0.2538,0.4032,0.1494
4340,0.2338,0.3988,0.165
4342,0.2659,0.4035,0.1376
4344,0.2775,0.4218,0.1443
4346,0.272,0.419,0.1469
4348,0.2696,0.4177,0.148
4350,0.2536,0.4503,0.1967
4352,0.2783,0.4322,0.1539
4354,0.2719,0.4351,0.1632
4356,0.2754,0.4435,0.1681
4358,0.2699,0.4299,0.1601
4360,0.2555,0.4392,0.1837
4362,0.2608,0.4426,0.1818
4364,0.2409,0.4154,0.1745
4366,0.2482,0.4121,0.1639
4368,0.238,0.3921,0.1541
4370,0.2313,0.403,0.1717
4372,0.2202,0.3954,0.1752
4374,0.1996,0.3388,0.1392
4376,0.2138,0.3716,0.1578
4378,0.2348,0.3596,0.1248
4380,0.194,0.3302,0.1362
4382,0.1689,0.293,0.1241
4384,0.205,0.2786,0.0736
4386,0.1629,0.2971,0.1341
4388,0.1686,0.2617,0.0931
4390,0.1495,0.2476,0.0981
4392,0.15,0.2373,0.0873
4394,0.1416,0.2104,0.0688
4396,0.1075,0.1796,0.072
4398,0.097,0.188,0.091
4400,0.0936,0.1715,0.0779
4402,0.0995,0.1493,0.0498
4404,0.091,0.1419,0.0508
4406,0.0691,0.1387,0.0696
4408,0.0738,0.0993,0.0255
4410,0.059,0.0912,0.0322
4412,0.0604,0.0891,0.0287
4414,0.0669,0.0875,0.0206
4416,0.018,0.0532,0.0352
4418,0.0378,0.0539,0.0161
4420,0.0331,0.0783,0.0452
4422,0.0039,0.0459,0.0419
4424,0.0244,0.0357,0.0112
4426,0.0296,0.0478,0.0182
4428,0.015,0.0212,0.0062
4430,0.0228,0.0478,0.025
4432,0.0106,0.0252,0.0145
4434,0.0038,0.036,0.0321
4436,0.0028,0.0144,0.0115
4438,0.0068,-0.0177,-0.0245
4440,-0.0031,0.0042,0.0073
4442,-0.0108,0.0284,0.0392
4444,-0.0198,0.0073,0.0271
4446,-0.0048,-0.0087,-0.0039
4448,0.0003,-0.0072,-0.0074
4450,0.002,0.0044,0.0025
4452,-0.0057,-0.0058,0
4454,0.0174,-0.011,-0.0284
4456,-0.0133,0.0156,0.0289
4458,0.0071,-0.0499,-0.0569
4460,-0.0188,-0.0134,0.0054
4462,-0.0102,-0.01,0.0002
4464,-0.0116,-0.0153,-0.0036
4466,-0.0136,-0.0188,-0.0052
4468,-0.0302,0.0005,0.0307
4470,-0.0094,-0.0268,-0.0173
4472,-0.013,-0.0329,-0.0199
4474,-0.0085,-0.0206,-0.012
4476,0.0048,0.005,0.0002
4478,-0.0249,-0.0085,0.0165
4480,-0.0145,0.0105,0.025
4482,0.0141,-0.0134,-0.0276
4484,-0.0075,0.0019,0.0094
4486,-0.0162,-0.0187,-0.0025
4488,-0.025,-0.016,0.009
4490,-0.0267,-0.0126,0.0141
4492,-0.0068,-0.0058,0.001
4494,-0.0245,0.0137,0.0382
4496,-0.0242,-0.0315,-0.0073
4498,0.0158,-0.0408,-0.0565
4500,-0.0117,-0.0276,-0.0159
4502,-0.0163,-0.0143,0.002
4504,-0.0192,-0.0053,0.0138
4506,0.0032,-0.0179,-0.0212
4508,-0.0022,0.0077,0.0099
4510,-0.0213,-0.0273,-0.0059
4512,-0.0185,-0.0348,-0.0163
4514,-0.0054,-0.0001,0.0052
4516,-0.0246,-0.0185,0.0061
4518,-0.0296,-0.0182,0.0114
4520,0.0039,-0.0102,-0.0141
4522,-0.0248,-0.0033,0.0215
4524,-0.0077,-0.0111,-0.0034
4526,0.0021,-0.0058,-0.0079
4528,-0.0187,-0.0177,0.001
4530,-0.0187,0.0104,0.0291
4532,-0.0209,0.0036,0.0245
4534,-0.0099,0.0005,0.0104
4536,-0.0097,-0.0139,-0.0042
4538,-0.0142,-0.0102,0.004
4540,-0.0218,0.0184,0.0402
4542,-0.0247,-0.0234,0.0014
4544,-0.0183,-0.014,0.0043
4546,-0.0234,-0.0055,0.0179
4548,-0.0426,-0.0185,0.0241
4550,-0.0193,-0.0062,0.0131
4552,-0.0346,-0.0106,0.024
4554,-0.01,-0.0175,-0.0075
4556,-0.0158,0.0035,0.0193
4558,0.0026,-0.0023,-0.0048
4560,-0.0187,-0.0172,0.0015
4562,-0.0239,-0.0166,0.0073
4564,-0.0119,-0.0229,-0.011
4566,-0.0218,-0.0138,0.008
4568,-0.005,-0.0049,0.0001
4570,-0.0207,-0.0297,-0.009
4572,-0.0377,-0.0101,0.0276
4574,-0.011,-0.0394,-0.0284
4576,-0.0121,-0.0192,-0.0072
4578,-0.02,-0.0187,0.0013
4580,-0.0036,-0.0283,-0.0247
4582,-0.0091,-0.0328,-0.0238
4584,-0.0273,-0.0028,0.0245
4586,-0.0306,-0.0096,0.021
4588,-0.035,-0.0267,0.0083
4590,-0.0162,-0.0217,-0.0056
4592,-0.0067,-0.0196,-0.0129
4594,-0.0225,-0.0302,-0.0077
4596,-0.0266,-0.011,0.0157
4598,-0.0283,-0.0446,-0.0162
4600,-0.0236,0.005,0.0286
4602,-0.0273,-0.0315,-0.0041
4604,-0.021,-0.0395,-0.0186
4606,-0.0491,-0.0384,0.0107
4608,-0.0015,-0.0257,-0.0242
4610,-0.0083,-0.0201,-0.0119
4612,-0.0166,-0.0271,-0.0105
4614,-0.0248,-0.0089,0.0159
4616,-0.013,-0.0168,-0.0038
4618,-0.0262,-0.0187,0.0075
4620,-0.0286,-0.0148,0.0138
4622,-0.0244,-0.0098,0.0146
4624,-0.0182,-0.02,-0.0018
4626,-0.0262,-0.0159,0.0104
4628,-0.0145,-0.0262,-0.0117
4630,-0.0016,-0.0131,-0.0115
4632,-0.0158,-0.0103,0.0055
4634,-0.0012,-0.0213,-0.0202
4636,-0.0284,-0.0308,-0.0023
4638,-0.0387,-0.0379,0.0008
4640,-0.0097,-0.0129,-0.0033
4642,-0.0128,-0.0148,-0.0021
4644,-0.0237,-0.0159,0.0079
4646,0.0014,-0.0054,-0.0068
4648,-0.0136,0.0063,0.0199
4650,-0.0261,-0.0161,0.01
4652,-0.0211,-0.007,0.0141
4654,-0.0203,-0.0205,-0.0002
4656,-0.0221,-0.0219,0.0002
4658,-0.0039,-0.0213,-0.0174
4660,-0.0136,-0.04,-0.0264
4662,-0.0453,-0.0495,-0.0042
4664,-0.0153,-0.0193,-0.004
4666,-0.0336,-0.0148,0.0188
4668,-0.0202,-0.0273,-0.007
4670,-0.0218,-0.0266,-0.0048
4672,-0.0339,-0.0106,0.0234
4674,-0.0149,-0.0149,0.0001
4676,-0.0196,-0.0421,-0.0225
4678,-0.0184,-0.0219,-0.0035
4680,-0.0295,-0.0229,0.0066
4682,-0.0209,-0.0327,-0.0118
4684,-0.0456,-0.0113,0.0343
4686,-0.0279,-0.0038,0.024
4688,-0.0095,-0.0284,-0.0189
4690,-0.0096,-0.0101,-0.0005
4692,-0.0065,-0.0083,-0.0018
4694,-0.0278,-0.0366,-0.0088
4696,-0.016,0.0076,0.0236
4698,-0.008,-0.0205,-0.0124
4700,-0.0257,-0.0317,-0.006
4702,0.0048,-0.0015,-0.0064
4704,-0.0225,-0.02,0.0025
4706,-0.0183,-0.0122,0.0062
4708,0.0048,-0.0018,-0.0066
4710,-0.0303,-0.0004,0.0299
4712,-0.0181,0.0041,0.0222
4714,0,-0.022,-0.022
4716,-0.0083,-0.0162,-0.0079
4718,-0.0094,-0.0272,-0.0177
4720,-0.0067,-0.0313,-0.0246
4722,-0.029,-0.0279,0.0012
4724,-0.0336,-0.0314,0.0022
4726,-0.0368,-0.0201,0.0167
4728,-0.0158,-0.0171,-0.0013
4730,-0.0161,-0.0213,-0.0052
4732,-0.0159,-0.0127,0.0032
4734,-0.0048,-0.0154,-0.0107
4736,-0.0226,-0.0103,0.0123
4738,-0.0573,-0.0102,0.047
4740,-0.0164,0.0134,0.0298
4742,-0.0253,-0.03,-0.0048
4744,-0.029,-0.0263,0.0027
4746,-0.0271,-0.012,0.0151
4748,0.0094,-0.0252,-0.0347
4750,-0.0122,-0.0209,-0.0087
4752,-0.0091,-0.0177,-0.0085
4754,-0.0098,-0.0186,-0.0088
4756,-0.0074,-0.0155,-0.008
4758,-0.0353,-0.0102,0.0252
4760,-0.02,-0.0191,0.001
4762,-0.0291,-0.0298,-0.0007
4764,-0.0107,-0.0051,0.0056
4766,-0.0135,-0.0316,-0.0181
4768,-0.0287,0.0104,0.0391
4770,-0.0052,-0.0143,-0.009
4772,-0.0207,-0.0367,-0.016
4774,0.0049,-0.0083,-0.0132
4776,-0.0326,-0.0179,0.0147
4778,-0.0104,-0.0247,-0.0143
4780,-0.0011,-0.0051,-0.0039
4782,-0.0038,-0.0497,-0.0459
4784,-0.0232,-0.0119,0.0113
4786,0.0043,-0.0133,-0.0176
4788,-0.0194,-0.0201,-0.0006
4790,-0.0318,-0.0069,0.0249
4792,-0.0052,-0.0062,-0.0011
4794,-0.0273,-0.0081,0.0192
4796,-0.0318,-0.0122,0.0196
4798,-0.0261,-0.009,0.017
4800,-0.0257,-0.0205,0.0051
4802,-0.0203,-0.0248,-0.0045
4804,-0.0133,-0.0163,-0.003
4806,-0.0014,0.0002,0.0015
4808,-0.0043,-0.0112,-0.0068
4810,-0.0216,-0.0401,-0.0185
4812,-0.0206,-0.0221,-0.0015
4814,-0.025,-0.0389,-0.0139
4816,-0.0169,-0.0334,-0.0164
4818,-0.0098,-0.0347,-0.0249
4820,-0.0274,-0.0004,0.027
4822,-0.0187,-0.0067,0.012
4824,-0.0134,-0.0235,-0.0102
4826,-0.0166,-0.0337,-0.0171
4828,-0.0291,-0.0254,0.0037
4830,-0.0526,-0.0033,0.0493
4832,-0.0195,-0.0237,-0.0043
4834,-0.008,-0.0103,-0.0023
4836,-0.0116,-0.0121,-0.0005
4838,-0.0174,-0.0272,-0.0098
4840,-0.0212,-0.0163,0.0049
4842,-0.0162,-0.0159,0.0003
4844,-0.0211,-0.0267,-0.0057
4846,-0.0208,-0.0172,0.0036
4848,-0.0007,-0.0432,-0.0425
4850,0.0006,-0.0398,-0.0403
4852,-0.02,-0.0122,0.0078
4854,-0.0178,-0.0224,-0.0046
4856,-0.0235,-0.0139,0.0096
4858,-0.0046,-0.0104,-0.0057
4860,-0.025,0,0.025
4862,-0.02,-0.0287,-0.0087
4864,-0.006,-0.014,-0.008
4866,-0.0054,-0.0157,-0.0103
4868,-0.0009,-0.0009,0.0001
4870,-0.0445,0.0147,0.0592
4872,-0.0056,0.0131,0.0186
4874,-0.0125,-0.0011,0.0114
4876,-0.0168,-0.007,0.0098
4878,-0.0153,0.0282,0.0436
4880,0.0089,0.046,0.037
4882,0.0171,0.0404,0.0232
4884,0.0228,0.0665,0.0437
4886,0.0185,0.0656,0.047
4888,0.0433,0.0941,0.0508
4890,0.0394,0.0926,0.0532
4892,0.0603,0.1125,0.0522
4894,0.0758,0.1256,0.0498
4896,0.0976,0.1512,0.0537
4898,0.0831,0.168,0.0849
4900,0.0923,0.2076,0.1153
4902,0.1268,0.2218,0.095
4904,0.133,0.2241,0.091
4906,0.1386,0.2365,0.0979
4908,0.1321,0.2527,0.1207
4910,0.1698,0.264,0.0942
4912,0.1689,0.2718,0.1028
4914,0.1567,0.2579,0.1012
4916,0.1502,0.2949,0.1447
4918,0.1591,0.2467,0.0876
4920,0.1576,0.2669,0.1092
4922,0.158,0.2391,0.0811
4924,0.155,0.2411,0.0861
4926,0.1023,0.2188,0.1165
4928,0.0992,0.2088,0.1096
4930,0.0901,0.182,0.092
4932,0.0774,0.1665,0.0892
4934,0.1086,0.1341,0.0255
4936,0.0656,0.1342,0.0686
4938,0.061,0.0983,0.0373
4940,0.0409,0.1099,0.069
4942,0.0326,0.0772,0.0446
4944,0.0026,0.047,0.0443
4946,0.002,0.0197,0.0177
4948,0.0003,0.0319,0.0316
4950,0.0144,0.0453,0.0309
4952,-0.0049,0.0115,0.0163
4954,-0.0297,0.0041,0.0338
4956,-0.0208,0.0009,0.0217
4958,-0.0153,-0.027,-0.0118
4960,-0.0072,-0.0065,0.0007
4962,-0.0181,-0.0323,-0.0142
4964,-0.0212,0.0028,0.024
4966,-0.0159,-0.0157,0.0003
4968,-0.0297,-0.0119,0.0178
4970,-0.0374,0.0088,0.0462
4972,-0.0293,-0.0209,0.0085
4974,-0.0377,-0.0124,0.0253
4976,-0.0226,-0.0071,0.0155
4978,-0.0245,-0.0169,0.0076
4980,-0.0333,0.002,0.0352
4982,-0.008,0.0057,0.0138
4984,0.0417,0.0658,0.0241
4986,0.0982,0.1796,0.0814
4988,0.2143,0.3574,0.143
4990,0.3737,0.6202,0.2465
4992,0.5701,0.9602,0.3901
4994,0.7971,1.2959,0.4989
4996,1.0021,1.5945,0.5923
4998,1.1205,1.7827,0.6623
5000,1.1393,1.8525,0.7132
5002,1.0559,1.7245,0.6686
5004,0.9112,1.4706,0.5594
5006,0.7089,1.1109,0.402
5008,0.475,0.7511,0.2761
5010,0.242,0.4217,0.1797
5012,0.0807,0.1479,0.0672
5014,-0.0217,-0.0177,0.004
5016,-0.0735,-0.1426,-0.069
5018,-0.1332,-0.1515,-0.0183
5020,-0.1077,-0.1389,-0.0312
5022,-0.0996,-0.1161,-0.0166
5024,-0.0399,-0.087,-0.0471
5026,-0.0259,-0.0408,-0.0148
5028,-0.0228,-0.0389,-0.0161
5030,-0.0239,-0.0215,0.0024
5032,-0.0092,0.038,0.0472
5034,0.0058,0.0071,0.0013
5036,0.0117,0.0215,0.0099
5038,0.0018,0.03,0.0282
5040,0.0151,0.0341,0.0189
5042,0.0196,0.047,0.0274
5044,-0.0016,0.0384,0.0399
5046,0.028,0.0349,0.0069
5048,0.0393,0.0724,0.033
5050,0.0406,0.0611,0.0204
5052,0.0368,0.0621,0.0253
5054,0.0192,0.0873,0.0681
5056,0.0645,0.0771,0.0126
5058,0.0515,0.093,0.0415
5060,0.0511,0.0844,0.0333
5062,0.078,0.0947,0.0168
5064,0.0518,0.1257,0.0739
5066,0.0587,0.0826,0.0239
5068,0.0552,0.1173,0.0621
5070,0.0857,0.1164,0.0307
5072,0.0636,0.1494,0.0857
5074,0.0824,0.1151,0.0327
5076,0.0817,0.167,0.0853
5078,0.0798,0.1607,0.0809
5080,0.0844,0.158,0.0737
5082,0.1152,0.1879,0.0727
5084,0.0809,0.2035,0.1226
5086,0.1436,0.1725,0.0289
5088,0.1135,0.2421,0.1286
5090,0.1373,0.2362,0.0989
5092,0.1341,0.2245,0.0905
5094,0.1456,0.2389,0.0933
5096,0.167,0.2389,0.0719
5098,0.1444,0.2614,0.1171
5100,0.1617,0.2908,0.1291
5102,0.1967,0.3046,0.1079
5104,0.1905,0.3004,0.1099
5106,0.2045,0.3143,0.1098
5108,0.2013,0.327,0.1257
5110,0.2159,0.366,0.15
5112,0.202,0.3433,0.1413
5114,0.2353,0.3791,0.1438
5116,0.253,0.3885,0.1355
5118,0.2308,0.3916,0.1608
5120,0.2492,0.4003,0.1511
5122,0.2356,0.4034,0.1679
5124,0.259,0.4001,0.1411
5126,0.2424,0.416,0.1735
5128,0.2682,0.412,0.1438
5130,0.2687,0.4291,0.1605
5132,0.2718,0.4536,0.1818
5134,0.2506,0.4281,0.1775
5136,0.2603,0.4296,0.1692
5138,0.2479,0.4325,0.1846
5140,0.2583,0.4223,0.1639
5142,0.2483,0.4116,0.1633
5144,0.2499,0.393,0.1431
5146,0.2435,0.392,0.1485
5148,0.2576,0.4,0.1424
5150,0.2134,0.4016,0.1881
5152,0.2223,0.3836,0.1613
5154,0.2235,0.3496,0.1261
5156,0.2081,0.3583,0.1502
5158,0.1833,0.3337,0.1505
5160,0.1922,0.3408,0.1487
5162,0.1658,0.2918,0.1259
5164,0.1612,0.272,0.1109
5166,0.1747,0.2737,0.0989
5168,0.1601,0.2609,0.1008
5170,0.1362,0.2399,0.1036
5172,0.1432,0.2451,0.1019
5174,0.1248,0.2374,0.1127
5176,0.1189,0.2191,0.1002
5178,0.1004,0.1809,0.0805
5180,0.1114,0.181,0.0696
5182,0.103,0.1561,0.0531
5184,0.078,0.1533,0.0753
5186,0.072,0.1318,0.0597
5188,0.0605,0.1324,0.072
5190,0.0704,0.1091,0.0387
5192,0.03,0.0961,0.0661
5194,0.0536,0.0714,0.0178
5196,0.0476,0.0668,0.0192
5198,0.03,0.0819,0.0519
5200,0.0383,0.0714,0.0331
5202,0.0276,0.0632,0.0356
5204,0.0139,0.0394,0.0255
5206,0.0184,0.032,0.0136
5208,0.0025,0.0388,0.0363
5210,0.0031,0.0631,0.06
5212,0.0042,0.0109,0.0067
5214,-0.0036,0.0106,0.0142
5216,0.0008,0.0326,0.0318
5218,0.0026,-0.0278,-0.0304
5220,0.0051,0.0304,0.0254
5222,0.0158,-0.0102,-0.026
5224,-0.0002,-0.0132,-0.013
5226,0.0142,0.0131,-0.001
5228,-0.0036,-0.0035,0
5230,-0.0022,0.0114,0.0135
5232,-0.0122,-0.0126,-0.0004
5234,-0.0178,0.0109,0.0286
5236,-0.0243,-0.0266,-0.0024
5238,-0.0165,-0.025,-0.0085
5240,-0.0269,-0.005,0.0219
5242,-0.0216,-0.0032,0.0185
5244,-0.0061,-0.0134,-0.0072
5246,-0.0123,-0.0031,0.0092
5248,-0.0133,-0.0147,-0.0013
5250,-0.0088,-0.0108,-0.002
5252,-0.0167,-0.0236,-0.0069
5254,-0.0198,-0.002,0.0178
5256,-0.0168,-0.0225,-0.0057
5258,-0.0062,0.0077,0.0139
5260,-0.0175,-0.0448,-0.0273
5262,-0.0195,-0.0057,0.0138
5264,-0.0282,-0.0053,0.0228
5266,-0.0311,-0.0132,0.0179
5268,-0.0029,-0.0314,-0.0285
5270,-0.018,-0.0268,-0.0088
5272,-0.0578,-0.0012,0.0566
5274,-0.0362,-0.0148,0.0214
5276,-0.0064,-0.0051,0.0013
5278,-0.0187,-0.0032,0.0156
5280,-0.0441,-0.0211,0.0231
5282,-0.0226,-0.022,0.0007
5284,-0.0233,-0.0161,0.0072
5286,0.0016,-0.0084,-0.01
5288,-0.0313,-0.0172,0.0141
5290,-0.0052,-0.0152,-0.01
5292,-0.0358,-0.0324,0.0034
5294,-0.034,-0.0087,0.0252
5296,-0.0291,-0.0138,0.0152
5298,-0.0175,-0.0105,0.007
5300,-0.0055,-0.0086,-0.0031
5302,-0.0399,-0.0237,0.0161
5304,-0.0066,-0.0215,-0.0149
5306,-0.028,-0.0002,0.0278
5308,-0.0422,-0.0178,0.0244
5310,-0.0157,-0.019,-0.0034
5312,-0.0226,-0.006,0.0166
5314,-0.0135,0.0079,0.0214
5316,-0.0231,-0.0246,-0.0015
5318,-0.0096,-0.0349,-0.0254
5320,-0.0153,-0.0156,-0.0004
5322,-0.0313,-0.0032,0.0281
5324,-0.0084,-0.0178,-0.0094
5326,-0.0368,-0.0008,0.036
5328,0.0044,-0.0292,-0.0336
5330,-0.0021,-0.02,-0.0179
5332,-0.026,-0.0261,-0.0001
5334,-0.0046,-0.0157,-0.0111
5336,-0.0096,-0.0262,-0.0165
5338,-0.0437,-0.018,0.0257
5340,-0.0046,-0.0268,-0.0223
5342,-0.0285,-0.01,0.0185
5344,-0.015,-0.0216,-0.0066
5346,-0.011,-0.0258,-0.0148
5348,-0.0036,-0.0274,-0.0238
5350,0.0074,-0.0004,-0.0078
5352,-0.0214,-0.0064,0.015
5354,-0.0138,-0.028,-0.0141
5356,-0.0212,-0.025,-0.0038
5358,-0.026,-0.0044,0.0216
5360,-0.0289,-0.0173,0.0116
5362,-0.0255,-0.0353,-0.0098
5364,-0.0318,-0.0231,0.0088
5366,-0.02,-0.0121,0.0079
5368,-0.0204,0.0007,0.0211
5370,0.0045,-0.0174,-0.0219
5372,-0.0278,-0.0394,-0.0116
5374,0.009,-0.0233,-0.0323
5376,-0.016,-0.032,-0.0161
5378,-0.0096,-0.0211,-0.0115
5380,-0.0154,-0.0214,-0.006
5382,-0.0258,-0.0177,0.0081
5384,-0.0151,-0.0292,-0.0141
5386,-0.0133,-0.0345,-0.0212
5388,-0.0262,-0.0191,0.0072
5390,0.008,0.0125,0.0046
5392,0.0211,-0.0381,-0.0592
5394,-0.0089,-0.0102,-0.0013
5396,-0.0029,-0.0091,-0.0062
5398,-0.0019,-0.0056,-0.0037
5400,-0.0041,-0.0414,-0.0373
5402,-0.0192,-0.0029,0.0163
5404,-0.0157,-0.0113,0.0044
5406,-0.0175,-0.0245,-0.007
5408,-0.0187,-0.0188,-0.0001
5410,-0.0055,-0.0114,-0.0059
5412,-0.0198,-0.0078,0.012
5414,-0.0288,0.0012,0.03
5416,-0.0169,-0.0392,-0.0223
5418,0.0016,-0.0002,-0.0018
5420,-0.0242,-0.0333,-0.0092
5422,-0.0291,-0.0217,0.0074
5424,-0.0312,-0.0429,-0.0117
5426,-0.0134,-0.0193,-0.006
5428,-0.0321,-0.0124,0.0196
5430,-0.0325,0.0124,0.0449
5432,-0.0246,-0.0211,0.0035
5434,-0.0301,-0.0188,0.0113
5436,-0.0049,-0.0142,-0.0093
5438,0.0053,-0.0317,-0.037
5440,-0.0104,-0.0247,-0.0143
5442,-0.024,-0.0196,0.0044
5444,-0.0266,-0.0261,0.0005
5446,-0.0264,-0.0265,0
5448,-0.013,0.0015,0.0145
5450,-0.0132,-0.0148,-0.0016
5452,-0.0128,-0.0176,-0.0048
5454,-0.0065,-0.005,0.0015
5456,-0.05,-0.0125,0.0375
5458,-0.0155,-0.0205,-0.005
5460,0.0079,0.0034,-0.0045
5462,-0.0152,-0.0109,0.0043
5464,-0.0179,-0.0029,0.0149
5466,0.004,-0.0017,-0.0057
5468,-0.0218,0.0009,0.0227
5470,-0.0082,-0.014,-0.0058
5472,-0.0122,-0.0298,-0.0176
5474,-0.0163,-0.0111,0.0052
5476,-0.031,-0.0047,0.0263
5478,-0.0082,-0.0277,-0.0195
5480,-0.0137,-0.0185,-0.0047
5482,-0.025,0.0057,0.0307
5484,-0.0141,-0.0136,0.0005
5486,0.014,-0.0071,-0.0211
5488,-0.0228,-0.0236,-0.0008
5490,-0.0002,-0.0039,-0.0037
5492,-0.0178,0.0052,0.0229
5494,-0.0333,-0.0223,0.011
5496,-0.0336,-0.0061,0.0275
5498,-0.0221,-0.019,0.0032
5500,-0.0155,-0.0253,-0.0099
5502,-0.0083,-0.0165,-0.0082
5504,-0.0093,-0.0124,-0.0031
5506,-0.0252,-0.014,0.0113
5508,-0.0428,-0.002,0.0408
5510,-0.0333,-0.0046,0.0287
5512,-0.0199,0.0189,0.0389
5514,-0.0186,-0.0234,-0.0048
5516,-0.0336,-0.0161,0.0175
5518,-0.0331,-0.0176,0.0155
5520,-0.0224,-0.0271,-0.0047
5522,-0.014,-0.0173,-0.0033
5524,-0.0256,-0.0307,-0.0051
5526,-0.0228,0.0171,0.0399
5528,-0.0116,-0.0023,0.0093
5530,-0.0359,-0.0022,0.0337
5532,-0.0109,-0.0147,-0.0038
5534,-0.0169,0.0062,0.023
5536,-0.0161,-0.023,-0.0069
5538,0.0052,-0.0136,-0.0187
5540,-0.0314,-0.0271,0.0043
5542,-0.0325,-0.0167,0.0158
5544,0.0027,-0.0163,-0.019
5546,-0.0175,-0.0105,0.007
5548,-0.01,0.0003,0.0103
5550,-0.0351,0.0004,0.0355
5552,-0.0098,-0.0237,-0.014
5554,-0.0144,-0.0102,0.0042
5556,-0.0334,-0.0187,0.0148
5558,-0.0255,-0.0192,0.0063
5560,-0.0181,-0.0207,-0.0026
5562,-0.0178,-0.017,0.0007
5564,-0.0136,-0.0108,0.0028
5566,0.0014,-0.0225,-0.0239
5568,-0.0277,-0.0064,0.0214
5570,-0.0187,-0.0046,0.0142
5572,-0.0113,-0.0076,0.0037
5574,-0.017,-0.0039,0.0131
5576,-0.0225,0.0098,0.0323
5578,-0.0194,-0.0155,0.0039
5580,0.0123,-0.0058,-0.0181
5582,-0.0208,-0.0244,-0.0036
5584,-0.0064,-0.0085,-0.0021
5586,-0.0111,0.0066,0.0177
5588,-0.0105,0.0128,0.0233
5590,-0.0243,-0.0086,0.0157
5592,-0.0047,-0.0337,-0.0291
5594,0.0011,-0.003,-0.004
5596,-0.0086,0.0043,0.0129
5598,-0.0035,0.0017,0.0053
5600,-0.0096,-0.0045,0.0052
5602,-0.0364,-0.0003,0.0361
5604,-0.0179,-0.0149,0.003
5606,-0.0339,-0.0082,0.0257
5608,-0.0238,0.0136,0.0374
5610,-0.0022,-0.0224,-0.0202
5612,-0.0214,-0.0159,0.0056
5614,-0.0172,-0.0214,-0.0042
5616,0.005,0.0014,-0.0035
5618,-0.0047,-0.0422,-0.0375
5620,0.0012,-0.0068,-0.008
5622,-0.0298,-0.0216,0.0082
5624,-0.0276,-0.0109,0.0167
5626,-0.0271,-0.0028,0.0243
5628,-0.0064,-0.0288,-0.0224
5630,0.0039,0.0304,0.0265
5632,-0.0012,-0.0005,0.0007
5634,0.0037,-0.0192,-0.0229
5636,-0.0164,0.0039,0.0204
5638,-0.0022,0.0076,0.0098
5640,0.0135,0.0111,-0.0024
5642,-0.0038,-0.0095,-0.0056
5644,-0.009,-0.0071,0.0018
5646,0.0002,0.0238,0.0236
5648,0.0321,0.028,-0.004
5650,0.0015,0.0377,0.0363
5652,0.0376,0.0535,0.0159
5654,0.0365,0.0296,-0.0069
5656,0.0288,0.0626,0.0339
5658,0.0467,0.0724,0.0257
5660,0.0494,0.1007,0.0513
5662,0.0769,0.114,0.0371
5664,0.0792,0.1699,0.0907
5666,0.1084,0.1659,0.0575
5668,0.1043,0.1928,0.0884
5670,0.1053,0.2285,0.1232
5672,0.1518,0.2123,0.0605
5674,0.1458,0.2251,0.0793
5676,0.1571,0.2517,0.0946
5678,0.1525,0.2613,0.1088
5680,0.174,0.2921,0.1181
5682,0.1739,0.2821,0.1082
5684,0.1397,0.263,0.1233
5686,0.1629,0.292,0.1291
5688,0.1543,0.2715,0.1172
5690,0.1747,0.267,0.0923
5692,0.1712,0.2451,0.0739
5694,0.1405,0.2269,0.0865
5696,0.1415,0.2082,0.0667
5698,0.1241,0.1973,0.0731
5700,0.1202,0.2,0.0798
5702,0.1002,0.1775,0.0773
5704,0.0783,0.1255,0.0471
5706,0.0857,0.1364,0.0507
5708,0.0425,0.1132,0.0707
5710,0.0497,0.1,0.0504
5712,0.0316,0.0707,0.0391
5714,0.0162,0.042,0.0259
5716,0.025,0.0535,0.0286
5718,0.0242,0.0281,0.0039
5720,-0.0143,-0.0006,0.0136
5722,0.0127,0.0335,0.0208
5724,-0.0078,0.0237,0.0315
5726,0.0078,0.0309,0.0231
5728,-0.0014,0.0081,0.0095
5730,-0.0074,-0.0076,-0.0002
5732,-0.0142,0.0054,0.0196
5734,-0.0006,0.0053,0.0058
5736,-0.033,-0.0083,0.0247
5738,-0.016,-0.0234,-0.0074
5740,-0.0074,-0.0083,-0.0009
5742,-0.0102,0.0011,0.0113
5744,-0.0123,-0.0319,-0.0196
5746,-0.0173,0.0119,0.0292
5748,-0.0008,-0.0081,-0.0073
5750,0.0096,0.0146,0.005
5752,0.0143,0.0317,0.0174
5754,0.0538,0.0939,0.0401
5756,0.1402,0.2559,0.1157
5758,0.2683,0.4461,0.1778
5760,0.486,0.7508,0.2648
5762,0.6772,1.0814,0.4042
5764,0.8925,1.4302,0.5376
5766,1.0564,1.7002,0.6438
5768,1.1534,1.8447,0.6914
5770,1.1472,1.8148,0.6677
5772,1.0201,1.6454,0.6254
5774,0.8353,1.3615,0.5263
5776,0.5969,0.9999,0.403
5778,0.3995,0.6288,0.2292
5780,0.1979,0.321,0.1231
5782,0.0645,0.0953,0.0309
5784,-0.0388,-0.0648,-0.0259
5786,-0.1089,-0.1194,-0.0105
5788,-0.0943,-0.1858,-0.0914
5790,-0.0915,-0.1408,-0.0494
5792,-0.0613,-0.1058,-0.0445
5794,-0.0657,-0.0548,0.0109
5796,-0.0214,-0.0462,-0.0248
5798,-0.0283,-0.0149,0.0134
5800,-0.0011,-0.0079,-0.0068
5802,-0.0035,0.0334,0.0368
5804,0.0177,0.028,0.0103
5806,0.0191,0.0439,0.0248
5808,0.0262,0.0236,-0.0026
5810,0.031,0.034,0.0031
5812,0.0247,0.0526,0.0279
5814,0.0414,0.0628,0.0214
5816,0.0601,0.0434,-0.0166
5818,0.0292,0.0691,0.0399
5820,0.0473,0.0783,0.031
5822,0.0512,0.0816,0.0304
5824,0.0316,0.0871,0.0555
5826,0.0552,0.084,0.0288
5828,0.0569,0.093,0.0362
5830,0.061,0.1269,0.0659
5832,0.0704,0.093,0.0226
5834,0.076,0.1219,0.0459
5836,0.0841,0.1299,0.0458
5838,0.0937,0.1243,0.0306
5840,0.0762,0.1396,0.0633
5842,0.0931,0.1241,0.031
5844,0.1187,0.155,0.0364
5846,0.1163,0.1735,0.0573
5848,0.0882,0.1791,0.0909
5850,0.0985,0.1719,0.0734
5852,0.1331,0.2097,0.0766
5854,0.1304,0.2131,0.0828
5856,0.1409,0.2147,0.0739
5858,0.1575,0.2458,0.0884
5860,0.1423,0.2414,0.0991
5862,0.153,0.2343,0.0813
5864,0.1526,0.251,0.0984
5866,0.1628,0.2739,0.1111
5868,0.1785,0.2793,0.1008
5870,0.1933,0.2911,0.0978
5872,0.2001,0.2829,0.0828
5874,0.1932,0.31,0.1167
5876,0.2168,0.3177,0.1008
5878,0.2139,0.3358,0.1219
5880,0.2225,0.3536,0.131
5882,0.2142,0.3811,0.1669
5884,0.2321,0.3977,0.1656
5886,0.2559,0.3964,0.1405
5888,0.247,0.4131,0.1661
5890,0.2764,0.4009,0.1244
5892,0.2674,0.4302,0.1628
5894,0.2684,0.44,0.1716
5896,0.2595,0.4317,0.1722
5898,0.2723,0.4357,0.1634
5900,0.2793,0.438,0.1587
5902,0.2801,0.4583,0.1783
5904,0.2873,0.4535,0.1661
5906,0.2736,0.4275,0.1539
5908,0.2769,0.4382,0.1613
5910,0.2681,0.4377,0.1696
5912,0.27,0.425,0.1549
5914,0.2591,0.4463,0.1872
5916,0.2575,0.3921,0.1346
5918,0.2361,0.4056,0.1695
5920,0.2634,0.4092,0.1459
5922,0.2378,0.3642,0.1264
5924,0.2228,0.3687,0.1459
5926,0.2277,0.3595,0.1318
5928,0.2137,0.3429,0.1291
5930,0.2038,0.3484,0.1446
5932,0.2019,0.332,0.1301
5934,0.1714,0.3082,0.1367
5936,0.189,0.269,0.08
5938,0.1707,0.2772,0.1065
5940,0.1372,0.2593,0.1221
5942,0.1535,0.2256,0.0721
5944,0.1374,0.2146,0.0772
5946,0.1239,0.2061,0.0822
5948,0.1227,0.1983,0.0756
5950,0.1069,0.178,0.0711
5952,0.1094,0.1888,0.0794
5954,0.0761,0.1461,0.07
5956,0.0921,0.1355,0.0434
5958,0.0592,0.1425,0.0832
5960,0.066,0.1307,0.0647
5962,0.0522,0.0868,0.0346
5964,0.0635,0.1004,0.0369
5966,0.0402,0.0703,0.03
5968,0.0607,0.0849,0.0242
5970,0.0555,0.0791,0.0236
5972,0.0422,0.0699,0.0277
5974,0.0295,0.0669,0.0373
5976,0.0432,0.0554,0.0121
5978,0.0117,0.0375,0.0257
5980,0.039,0.0547,0.0157
5982,0.0045,0.0183,0.0138
5984,-0.0023,-0.0025,-0.0003
5986,-0.0041,0.0474,0.0514
5988,0.0208,0.03,0.0092
5990,0.0091,0.0048,-0.0043
5992,0.0015,-0.0013,-0.0028
5994,0.0007,0.026,0.0254
5996,0.0037,0.0059,0.0022
5998,0.0004,-0.0024,-0.0028
6000,0.0238,-0.0007,-0.0245
6002,0.0034,0.0092,0.0058
6004,-0.0068,-0.0224,-0.0156
6006,-0.0031,0.0269,0.0301
6008,-0.0037,0.0105,0.0141
6010,0.0115,0.0053,-0.0061
6012,-0.021,-0.0202,0.0008
6014,-0.0017,-0.0134,-0.0117
6016,-0.0155,-0.004,0.0115
6018,-0.0304,0.0078,0.0382
6020,-0.0156,0.0146,0.0301
6022,-0.0012,-0.0056,-0.0044
6024,0.0188,0.0144,-0.0044
6026,0.0203,0.0149,-0.0053
6028,0.0002,0.0197,0.0195
6030,-0.0023,-0.0042,-0.0019
6032,-0.0057,0.0025,0.0082
6034,-0.025,-0.0089,0.0161
6036,-0.0021,0.0091,0.0111
6038,-0.0148,0.0134,0.0282
6040,0.0019,0.0209,0.019
6042,-0.0228,-0.0009,0.0219
6044,-0.0171,0.0003,0.0174
6046,0.0133,-0.0126,-0.026
6048,-0.01,-0.0265,-0.0165
6050,-0.0009,0.0088,0.0096
6052,0.0103,0.0162,0.0059
6054,0.0078,0.0086,0.0008
6056,-0.0014,-0.0083,-0.0069
6058,-0.0034,-0.0186,-0.0153
6060,-0.0093,-0.007,0.0023
6062,0.0067,-0.0181,-0.0248
6064,-0.0013,0.0037,0.0049
6066,-0.0072,-0.0026,0.0046
6068,0.0122,0.0166,0.0044
6070,-0.0121,-0.0026,0.0095
6072,-0.0121,-0.0097,0.0024
6074,-0.0135,-0.0255,-0.012
6076,-0.0133,0.0071,0.0204
6078,-0.0034,-0.0188,-0.0154
6080,-0.0072,-0.0089,-0.0016
6082,0.0102,0.0178,0.0077
6084,0.0101,-0.0034,-0.0135
6086,-0.0005,0.0065,0.007
6088,0.0098,-0.0058,-0.0156
6090,0.0016,-0.0149,-0.0165
6092,-0.0142,0.0119,0.026
6094,-0.0047,-0.0086,-0.0039
6096,-0.0311,-0.0175,0.0136
6098,-0.0003,-0.0048,-0.0045
6100,-0.0071,-0.0201,-0.013
6102,0.0201,0.0226,0.0024
6104,-0.0229,-0.0066,0.0163
6106,0.0053,0.0175,0.0123
6108,0.0135,-0.0218,-0.0353
6110,-0.0163,-0.0017,0.0146
6112,-0.0099,0.0317,0.0416
6114,0.0002,-0.0043,-0.0045
6116,0.0045,0.021,0.0165
6118,0.0206,-0.0289,-0.0495
6120,0.0139,0.0126,-0.0013
6122,0.0143,-0.0135,-0.0278
6124,0.0013,0.0006,-0.0008
6126,0.0117,0.0013,-0.0104
6128,0.0002,-0.0056,-0.0058
6130,0.0037,0.0204,0.0167
6132,-0.0016,0.0059,0.0075
6134,0.0004,-0.0246,-0.025
6136,0.0059,0.0138,0.0079
6138,-0.0036,0.0412,0.0447
6140,0.0132,-0.0039,-0.0171
6142,-0.0008,0.0107,0.0114
6144,-0.0126,0.011,0.0236
6146,-0.0181,0.005,0.0231
6148,-0.0058,-0.0075,-0.0017
6150,0.0078,0.0128,0.005
6152,-0.0028,-0.0212,-0.0184
6154,0.0287,0.0216,-0.0071
6156,0.0026,-0.0121,-0.0146
6158,0.0054,-0.0141,-0.0194
6160,-0.002,-0.0112,-0.0092
6162,0.0029,-0.0217,-0.0246
6164,0.0073,-0.0104,-0.0177
6166,0.0143,-0.0113,-0.0256
6168,-0.0165,0.0096,0.0261
6170,-0.0277,-0.0062,0.0214
6172,-0.0041,-0.0186,-0.0145
6174,-0.0161,0.0011,0.0172
6176,-0.011,-0.004,0.0069
6178,0.0065,-0.0274,-0.0339
6180,0.0092,0.0196,0.0103
6182,0.006,-0.0091,-0.0151
6184,-0.0074,-0.0193,-0.0119
6186,0.0315,-0.0156,-0.0471
6188,-0.0014,-0.0086,-0.0072
6190,0.0138,-0.0043,-0.018
6192,-0.0007,-0.0005,0.0002
6194,0.0128,0.018,0.0052
6196,-0.0019,0.0037,0.0056
6198,0.0112,-0.0029,-0.0141
6200,-0.0044,0.0144,0.0188
6202,-0.0286,0,0.0287
6204,0.012,0.0162,0.0043
6206,-0.0086,-0.0004,0.0083
6208,0.0089,-0.0095,-0.0184
6210,-0.0066,-0.0102,-0.0036
6212,0.019,-0.0041,-0.0231
6214,0.0025,0.0123,0.0098
6216,0.0159,-0.0082,-0.0242
6218,0.0072,0.0139,0.0067
6220,-0.0033,0.0143,0.0176
6222,0.0029,0.0179,0.015
6224,-0.0091,0.0037,0.0128
6226,-0.0098,0.0274,0.0371
6228,0.002,-0.0075,-0.0095
6230,0.0022,-0.0137,-0.0159
6232,0.0153,0.0157,0.0005
6234,-0.0105,0.0029,0.0134
6236,0.0072,-0.0096,-0.0168
6238,0.0104,-0.0058,-0.0162
6240,-0.0021,-0.0055,-0.0034
6242,0.022,-0.005,-0.027
6244,-0.0176,-0.0052,0.0125
6246,-0.0088,0.0148,0.0236
6248,-0.0062,-0.0029,0.0033
6250,0.0218,0.0136,-0.0082
6252,0.0007,-0.0068,-0.0075
6254,0.0111,0.0055,-0.0056
6256,0.0222,-0.0115,-0.0337
6258,0.0236,-0.0035,-0.0271
6260,-0.0125,0.0138,0.0263
6262,-0.0059,-0.0176,-0.0117
6264,-0.002,0.0031,0.0051
6266,-0.0162,0.0087,0.0249
6268,-0.0135,0.02,0.0335
6270,0.0039,0.0133,0.0094
6272,0.0029,0.0136,0.0106
6274,-0.0124,0.0081,0.0206
6276,0.0154,-0.0188,-0.0342
6278,0.0128,0.0153,0.0026
6280,-0.0127,0.0136,0.0263
6282,-0.0053,0.0002,0.0055
6284,-0.0007,-0.0237,-0.023
6286,-0.0097,0.0114,0.0211
6288,-0.0005,0.005,0.0054
6290,-0.0152,-0.005,0.0103
6292,0.0148,0.0238,0.009
6294,0.0395,0.0015,-0.038
6296,0.017,0.0222,0.0052
6298,0.0048,-0.0108,-0.0156
6300,0.0004,-0.0013,-0.0016
6302,0.0093,-0.0114,-0.0206
6304,0.0232,0.0184,-0.0049
6306,0.0001,-0.0116,-0.0117
6308,-0.0021,0.009,0.0111
6310,-0.0052,-0.005,0.0002
6312,0.0167,-0.0172,-0.0339
6314,-0.0074,-0.0062,0.0012
6316,0.0092,0.0014,-0.0078
6318,-0.0133,0.019,0.0322
6320,0.0269,-0.0075,-0.0344
6322,0.003,0.0098,0.0068
6324,-0.0108,-0.0071,0.0037
6326,0.011,0.0248,0.0138
6328,0.0111,0.0235,0.0124
6330,-0.0127,-0.0084,0.0044
6332,0.0126,0.0066,-0.006
6334,-0.0001,-0.0006,-0.0005
6336,0.0215,0.0248,0.0033
6338,0.0204,0.0122,-0.0082
6340,0.0262,0.0062,-0.02
6342,-0.0069,0.0133,0.0202
6344,-0.0058,0.0204,0.0262
6346,0.0035,0.0071,0.0035
6348,-0.001,0.0075,0.0085
6350,0.0018,0.0196,0.0178
6352,0.0146,0.0091,-0.0055
6354,0.0031,-0.0037,-0.0068
6356,-0.001,0.0165,0.0175
6358,0.0117,0.017,0.0053
6360,0.0083,0.0233,0.015
6362,0.0302,-0.0017,-0.0319
6364,0.0197,-0.0113,-0.031
6366,-0.0005,0.0392,0.0397
6368,0.0047,0.0189,0.0142
6370,-0.0025,0.0073,0.0098
6372,0.0167,0.0166,0
6374,-0.0056,0.0165,0.0221
6376,0.0041,0.0081,0.004
6378,0.0182,0.0275,0.0093
6380,0.0097,0.0033,-0.0064
6382,-0.0182,0.0153,0.0336
6384,0.0145,-0.0036,-0.0181
6386,0.0076,0.0076,0
6388,0.0191,-0.0027,-0.0218
6390,0.0161,0.0065,-0.0096
6392,0.0089,0.0045,-0.0043
6394,0.008,-0.0012,-0.0091
6396,-0.0181,0.0312,0.0493
6398,0.0307,0.0252,-0.0055
6400,0.0058,0.0215,0.0157
6402,0.0167,0.0063,-0.0104
6404,0.0042,0.0232,0.019
6406,0.0222,0.0224,0.0002
6408,0.0143,0.0204,0.0062
6410,0.0164,0.0149,-0.0015
6412,0.0298,0.0058,-0.024
6414,0.0156,0.0506,0.035
6416,0.0099,0.0277,0.0178
6418,0.038,0.0552,0.0172
6420,0.015,0.0407,0.0257
6422,0.0475,0.0669,0.0194
6424,0.0352,0.0556,0.0203
6426,0.0437,0.0843,0.0405
6428,0.0658,0.0869,0.0211
6430,0.0501,0.0828,0.0327
6432,0.0913,0.0916,0.0003
6434,0.0877,0.1193,0.0316
6436,0.0897,0.1604,0.0707
6438,0.1207,0.1469,0.0262
6440,0.1009,0.1875,0.0866
6442,0.1146,0.217,0.1024
6444,0.1571,0.2059,0.0488
6446,0.1255,0.2494,0.124
6448,0.1769,0.2461,0.0692
6450,0.1717,0.256,0.0842
6452,0.1649,0.2872,0.1223
6454,0.1968,0.2821,0.0854
6456,0.1975,0.3016,0.1041
6458,0.1772,0.3037,0.1265
6460,0.1812,0.293,0.1118
6462,0.1825,0.2878,0.1053
6464,0.1792,0.2875,0.1084
6466,0.162,0.2761,0.1142
6468,0.1641,0.2378,0.0738
6470,0.173,0.2411,0.068
6472,0.1312,0.2116,0.0804
6474,0.1467,0.1993,0.0526
6476,0.1282,0.1872,0.059
6478,0.1079,0.1742,0.0662
6480,0.0941,0.1516,0.0574
6482,0.0919,0.1177,0.0258
6484,0.0693,0.1177,0.0485
6486,0.046,0.0887,0.0426
6488,0.0699,0.0865,0.0166
6490,0.0508,0.0626,0.0117
6492,0.0591,0.0575,-0.0016
6494,0.0282,0.0517,0.0236
6496,0.0209,0.0584,0.0375
6498,0.0366,0.0393,0.0026
6500,0.0191,0.0219,0.0028
6502,0.0255,0.0157,-0.0098
6504,0.0308,0.0211,-0.0097
6506,0.0339,0.0031,-0.0308
6508,-0.011,0.028,0.0391
6510,0.0047,0.0113,0.0066
6512,0.0025,0.0259,0.0234
6514,0.0353,-0.0042,-0.0395
6516,0.0146,0.0088,-0.0058
6518,-0.0019,0.0046,0.0064
6520,-0.0017,0.0025,0.0042
6522,0.0195,0.0162,-0.0034
6524,0.024,0.034,0.0101
6526,0.0383,0.0264,-0.0119
6528,0.0867,0.1391,0.0524
6530,0.1669,0.2235,0.0566
6532,0.2915,0.4651,0.1736
6534,0.4704,0.7515,0.2811
6536,0.6814,1.0757,0.3944
6538,0.8822,1.4474,0.5652
6540,1.0659,1.7131,0.6472
6542,1.1662,1.8656,0.6994
6544,1.1761,1.8397,0.6636
6546,1.0674,1.7104,0.643
6548,0.8799,1.3961,0.5162
6550,0.6456,1.0483,0.4027
6552,0.4301,0.645,0.2149
6554,0.2255,0.3699,0.1444
6556,0.087,0.1233,0.0363
6558,-0.0122,-0.0288,-0.0166
6560,-0.0665,-0.1078,-0.0413
6562,-0.0834,-0.1254,-0.042
6564,-0.0749,-0.1096,-0.0347
6566,-0.0344,-0.0697,-0.0353
6568,-0.0453,-0.0498,-0.0044
6570,0.0189,-0.0243,-0.0432
6572,0.023,-0.0003,-0.0233
6574,0.0262,0.0048,-0.0214
6576,0.0142,0.0699,0.0557
6578,0.0497,0.0436,-0.0061
6580,0.0303,0.0433,0.013
6582,0.0333,0.0856,0.0522
6584,0.058,0.0745,0.0165
6586,0.0568,0.0734,0.0166
6588,0.053,0.0909,0.0379
6590,0.0632,0.0636,0.0003
6592,0.0353,0.0879,0.0526
6594,0.0423,0.0956,0.0534
6596,0.0643,0.092,0.0278
6598,0.0652,0.0866,0.0214
6600,0.0896,0.1124,0.0228
6602,0.0604,0.0949,0.0346
6604,0.0836,0.1277,0.0441
6606,0.0871,0.1303,0.0432
6608,0.1062,0.152,0.0458
6610,0.1109,0.1505,0.0396
6612,0.1054,0.1474,0.042
6614,0.0868,0.1537,0.0669
6616,0.0945,0.1672,0.0727
6618,0.1318,0.1521,0.0203
6620,0.1205,0.1867,0.0662
6622,0.1358,0.1942,0.0584
6624,0.1244,0.1921,0.0677
6626,0.1526,0.212,0.0593
6628,0.1547,0.2357,0.081
6630,0.1496,0.2594,0.1098
6632,0.1578,0.2349,0.0771
6634,0.1442,0.2381,0.0939
6636,0.1583,0.2498,0.0916
6638,0.1836,0.285,0.1014
6640,0.1788,0.3123,0.1335
6642,0.1867,0.3038,0.1171
6644,0.2201,0.3196,0.0994
6646,0.2126,0.3312,0.1187
6648,0.2329,0.3643,0.1314
6650,0.2158,0.3443,0.1285
6652,0.2249,0.3583,0.1333
6654,0.2453,0.4059,0.1605
6656,0.2481,0.3834,0.1352
6658,0.2627,0.4266,0.1639
6660,0.2782,0.4199,0.1417
6662,0.2805,0.4266,0.1462
6664,0.2737,0.4157,0.142
6666,0.2827,0.4487,0.166
6668,0.2804,0.4441,0.1637
6670,0.2757,0.4517,0.176
6672,0.3,0.4462,0.1462
6674,0.2956,0.4796,0.184
6676,0.3029,0.4567,0.1539
6678,0.3091,0.4691,0.16
6680,0.2903,0.4771,0.1868
6682,0.3066,0.4529,0.1463
6684,0.2963,0.4647,0.1684
6686,0.291,0.4683,0.1773
6688,0.2684,0.4339,0.1655
6690,0.2835,0.4424,0.1589
6692,0.2882,0.4317,0.1435
6694,0.273,0.4279,0.1549
6696,0.2651,0.4024,0.1373
6698,0.2551,0.4062,0.1511
6700,0.2745,0.3992,0.1247
6702,0.2305,0.3738,0.1433
6704,0.2218,0.3642,0.1424
6706,0.2336,0.3451,0.1115
6708,0.2078,0.3373,0.1294
6710,0.2081,0.3002,0.092
6712,0.1998,0.3011,0.1014
6714,0.2073,0.2777,0.0704
6716,0.156,0.2734,0.1174
6718,0.1527,0.2564,0.1038
6720,0.1461,0.2557,0.1096
6722,0.1337,0.2185,0.0847
6724,0.1468,0.2058,0.0591
6726,0.1476,0.2022,0.0546
6728,0.1128,0.1853,0.0725
6730,0.115,0.1382,0.0232
6732,0.099,0.164,0.0651
6734,0.0909,0.1471,0.0562
6736,0.0891,0.1412,0.0521
6738,0.0644,0.0944,0.03
6740,0.0886,0.1161,0.0275
6742,0.0427,0.1023,0.0596
6744,0.0932,0.0839,-0.0093
6746,0.0339,0.0863,0.0524
6748,0.0372,0.0982,0.061
6750,0.0465,0.0657,0.0192
6752,0.0693,0.0429,-0.0265
6754,0.067,0.0813,0.0143
6756,0.0279,0.0426,0.0147
6758,0.0469,0.0491,0.0021
6760,0.0367,0.0511,0.0144
6762,0.0316,0.0245,-0.0071
6764,0.0447,0.015,-0.0297
6766,0.0203,0.0321,0.0118
6768,0.0215,0.0225,0.001
6770,0.0183,0.0385,0.0202
6772,0.0305,0.0056,-0.0249
6774,0.0348,0.0223,-0.0126
6776,0.0397,0.0431,0.0034
6778,0.0162,0.0125,-0.0037
6780,0.0241,0.0333,0.0092
6782,0.0159,0.0239,0.0081
6784,0.0428,0.0376,-0.0051
6786,0.0329,0.0168,-0.0162
6788,0.0282,0.0291,0.0009
6790,0.0037,0.0268,0.0231
6792,0.0518,0.0116,-0.0402
6794,0.0094,0.0192,0.0098
6796,0.0277,0.0276,-0.0001
6798,0.0255,0.0426,0.0171
6800,0.0295,0.0307,0.0012
6802,0.039,0.0196,-0.0194
6804,0.0166,0.0295,0.0129
6806,0.0149,0.0145,-0.0005
6808,0.013,0.0099,-0.0032
6810,0.0077,0.0118,0.0041
6812,0.0063,0.0002,-0.0061
6814,0.0379,-0.002,-0.0399
6816,0.0269,0.0372,0.0102
6818,0.0339,0.0125,-0.0214
6820,0.0158,-0.0048,-0.0206
6822,0.0262,0.0441,0.0178
6824,0.0219,0.0011,-0.0208
6826,0.0419,0.0336,-0.0083
6828,0.0313,0.0259,-0.0055
6830,0.0215,0.0255,0.004
6832,0.0284,0.0175,-0.0109
6834,0.0218,0.0403,0.0186
6836,0.0221,0.0213,-0.0009
6838,0.0325,0.0312,-0.0013
6840,0.0388,-0.0025,-0.0413
6842,0.002,0.0066,0.0046
6844,0.0254,0.0337,0.0082
6846,0.0467,0.033,-0.0137
6848,0.0277,0.007,-0.0207
6850,0.0255,0.0098,-0.0157
6852,0.0177,0.0188,0.0011
6854,0.0035,0.0214,0.0179
6856,0.013,0.0015,-0.0115
6858,-0.0066,0.0018,0.0083
6860,0.0208,0.031,0.0102
6862,0.011,0.0226,0.0116
6864,0.0252,0.0277,0.0025
6866,0.0272,0.0193,-0.0079
6868,0.0236,0.0267,0.0031
6870,0.0325,0.0327,0.0002
6872,0.0221,0.054,0.0318
6874,0.0259,0.0146,-0.0113
6876,0.0066,0.0112,0.0046
6878,0.0202,0.023,0.0028
6880,0.0112,0.0088,-0.0024
6882,0.0329,0.0326,-0.0003
6884,0.0177,0.008,-0.0097
6886,0.0623,0.0235,-0.0387
6888,0.04,-0.0047,-0.0447
6890,0.0242,0.0284,0.0043
6892,0.0488,0.0103,-0.0385
6894,-0.0059,0.0123,0.0182
6896,0.0163,0.005,-0.0113
6898,0.0319,0.0178,-0.0141
6900,0.0152,0.0274,0.0122
6902,0.0446,0.0066,-0.038
6904,0.0309,0.0041,-0.0267
6906,0.0088,0.0205,0.0117
6908,0.034,0.0301,-0.0039
6910,0.0215,0.0169,-0.0046
6912,0.0212,0.0271,0.0059
6914,0.0414,0.0248,-0.0166
6916,-0.0005,0.0035,0.0039
6918,0.0206,0.0155,-0.0051
6920,0.0254,0.0487,0.0233
6922,0.0297,0.0132,-0.0165
6924,0.0006,0.0233,0.0227
6926,0.027,0.0297,0.0027
6928,0.0113,0.0317,0.0204
6930,0.0084,0.0156,0.0072
6932,0.0076,0.0226,0.015
6934,0.0361,0.0092,-0.0269
6936,0.059,0.0292,-0.0298
6938,0.0295,0.0348,0.0053
6940,0.0049,0.034,0.0291
6942,0.0121,0.0499,0.0379
6944,0.0148,0.0213,0.0065
6946,0.0251,0.0322,0.0071
6948,0.0122,-0.0009,-0.0131
6950,0.0243,0.032,0.0077
6952,0.0394,0.0113,-0.0281
6954,0.0161,0.0184,0.0024
6956,0.041,0.0259,-0.0151
6958,0.0323,0.043,0.0107
6960,0.0377,0.0166,-0.0211
6962,0.0188,0.0146,-0.0042
6964,0.0192,0.0067,-0.0125
6966,0.0305,0.0194,-0.0111
6968,0.0308,0.0215,-0.0093
6970,0.0336,0.0247,-0.0089
6972,0.0225,0.0255,0.0029
6974,0.0132,0.0181,0.0049
6976,0.0398,0.0232,-0.0167
6978,0.0197,0.0595,0.0398
6980,0.0391,0.0203,-0.0187
6982,0.0256,0.0277,0.002
6984,0.0312,0.0313,0.0001
6986,0.0288,0.0707,0.0419
6988,0.0306,0.0569,0.0263
6990,0.0296,0.0388,0.0092
6992,0.0139,0.0244,0.0104
6994,0.0047,0.0262,0.0215
6996,0.0351,0.0162,-0.0189
6998,0.0236,0.0331,0.0094
7000,0.0287,0.0223,-0.0064
7002,0.0361,0.0218,-0.0142
7004,0.0148,0.0432,0.0284
7006,0.0282,0.0159,-0.0123
7008,0.0252,0.0102,-0.0149
7010,0.0179,0.0499,0.032
7012,0.0438,0.0194,-0.0243
7014,0.005,0.0298,0.0248
7016,0.0449,0.0346,-0.0103
7018,0.0195,0.0175,-0.002
7020,0.0243,0.0162,-0.0081
7022,0.0366,0.0318,-0.0048
7024,0.0264,0.0288,0.0024
7026,0.0178,0.0337,0.0159
7028,0.0176,0.0071,-0.0105
7030,0.0296,0.0233,-0.0063
7032,0.017,0.0472,0.0302
7034,0.0597,0.0283,-0.0315
7036,0.0285,0.0263,-0.0022
7038,0.0126,0.0306,0.018
7040,0.0292,0.0324,0.0032
7042,0.0359,0.0155,-0.0203
7044,0.021,0.0349,0.0138
7046,0.032,0.018,-0.014
7048,0.0236,0.0239,0.0003
7050,0.0251,0.0485,0.0235
7052,0.033,0.0156,-0.0173
7054,0.0272,0.0303,0.0031
7056,0.0268,0.0331,0.0063
7058,0.0416,0.0248,-0.0168
7060,0.0366,0.0025,-0.0342
7062,0.0439,0.0224,-0.0215
7064,0.0445,0.0172,-0.0273
7066,0.0538,0.0309,-0.0229
7068,0.0267,0.0183,-0.0084
7070,0.031,0.0542,0.0232
7072,0.0428,0.03,-0.0128
7074,0.0253,0.0318,0.0065
7076,0.0209,0.0169,-0.004
7078,0.0238,0.0184,-0.0053
7080,0.032,0.0295,-0.0025
7082,0.0358,0.0125,-0.0233
7084,0.0309,0.0272,-0.0037
7086,0.0466,0.0168,-0.0298
7088,0.0228,0.0188,-0.0041
7090,0.0289,0.0372,0.0083
7092,0.0389,0.0237,-0.0152
7094,0.0325,0.0255,-0.007
7096,0.0431,0.0036,-0.0396
7098,0.0122,0.009,-0.0032
7100,0.0321,0.0318,-0.0004
7102,0.0102,0.0409,0.0307
7104,0.0256,0.0385,0.0129
7106,0.025,0.0141,-0.0109
7108,0.0312,0.0263,-0.005
7110,0.0351,0.0364,0.0013
7112,0.0272,0.0332,0.006
7114,0.023,0.0056,-0.0174
7116,0.0405,0.0002,-0.0403
7118,0.0282,0.0215,-0.0066
7120,0.0292,0.0124,-0.0168
7122,0.0365,0.0338,-0.0027
7124,0.0225,0.0184,-0.0041
7126,0.0409,0.023,-0.0179
7128,0.0391,0.0354,-0.0037
7130,0.0235,0.012,-0.0115
7132,0.0323,0.011,-0.0213
7134,0.0292,0.0252,-0.004
7136,0.0402,0.0301,-0.0101
7138,0.0566,0.0177,-0.0389
7140,0.0363,0.0311,-0.0052
7142,0.0279,0.018,-0.0099
7144,0.0251,0.0472,0.0221
7146,0.0386,0.0154,-0.0231
7148,0.0425,0.0224,-0.0201
7150,0.0343,0.0441,0.0099
7152,0.0367,0.0427,0.006
7154,0.0478,0.0179,-0.0299
7156,0.0027,0.0187,0.016
7158,0.0296,0.018,-0.0115
7160,0.0162,0.0344,0.0182
7162,0.0403,0.0237,-0.0166
7164,0.0361,0.0336,-0.0025
7166,0.0198,0.022,0.0022
7168,0.0268,0.0201,-0.0066
7170,0.0228,-0.0029,-0.0257
7172,0.0218,0.0358,0.014
7174,0.0367,0.022,-0.0147
7176,0.023,0.0382,0.0152
7178,0.0321,0.0295,-0.0026
7180,0.0374,0.02,-0.0174
7182,0.0323,0.0291,-0.0032
7184,0.0101,0.0424,0.0324
7186,0.0629,0.0125,-0.0504
7188,0.0262,0.0363,0.01
7190,0.0357,0.0394,0.0037
7192,0.0266,0.031,0.0045
7194,0.0325,0.056,0.0235
7196,0.0257,0.0253,-0.0004
7198,0.0632,0.0339,-0.0293
7200,0.0656,0.0463,-0.0193
7202,0.0491,0.0467,-0.0025
7204,0.0492,0.065,0.0158
7206,0.0453,0.0665,0.0212
7208,0.0563,0.074,0.0177
7210,0.061,0.0752,0.0142
7212,0.0855,0.0887,0.0032
7214,0.0665,0.0772,0.0106
7216,0.1079,0.1132,0.0053
7218,0.0933,0.1525,0.0593
7220,0.1155,0.1503,0.0348
7222,0.1364,0.1709,0.0345
7224,0.1274,0.1781,0.0506
7226,0.1301,0.2289,0.0988
7228,0.161,0.2263,0.0653
7230,0.1723,0.2598,0.0874
7232,0.1897,0.2696,0.0799
7234,0.1834,0.2913,0.108
7236,0.2067,0.2908,0.0841
7238,0.2172,0.2778,0.0606
7240,0.2108,0.2959,0.0851
7242,0.219,0.3182,0.0993
7244,0.2151,0.318,0.1029
7246,0.1957,0.324,0.1283
7248,0.236,0.3214,0.0855
7250,0.202,0.301,0.099
7252,0.1927,0.3105,0.1178
7254,0.192,0.271,0.0791
7256,0.1783,0.2579,0.0796
7258,0.1719,0.2411,0.0692
7260,0.1572,0.2081,0.0509
7262,0.1406,0.1933,0.0528
7264,0.1173,0.1865,0.0692
7266,0.1354,0.155,0.0197
7268,0.0966,0.1532,0.0566
7270,0.1024,0.1538,0.0513
7272,0.1111,0.1447,0.0336
7274,0.0822,0.103,0.0208
7276,0.0873,0.096,0.0087
7278,0.0731,0.0718,-0.0013
7280,0.0704,0.0906,0.0201
7282,0.0717,0.0553,-0.0164
7284,0.0493,0.0623,0.013
7286,0.0517,0.0708,0.0191
7288,0.0287,0.0438,0.0151
7290,0.0488,0.0283,-0.0205
7292,0.0497,0.0523,0.0027
7294,0.0447,0.0444,-0.0003
7296,0.0381,0.056,0.0179
7298,0.0265,0.0437,0.0172
7300,0.0408,0.0365,-0.0043
7302,0.0445,0.0511,0.0066
7304,0.0407,0.0467,0.006
7306,0.04,0.0345,-0.0055
7308,0.0349,0.0154,-0.0194
7310,0.0453,0.0241,-0.0212
7312,0.0569,0.0872,0.0302
7314,0.0939,0.1551,0.0612
7316,0.1753,0.2739,0.0986
7318,0.3099,0.4909,0.181
7320,0.5062,0.7474,0.2412
7322,0.7038,1.118,0.4143
7324,0.9272,1.4647,0.5375
7326,1.0786,1.7523,0.6737
7328,1.2003,1.8722,0.6719
7330,1.1812,1.8912,0.71
7332,1.0988,1.712,0.6132
7334,0.8942,1.4249,0.5306
7336,0.6727,1.0628,0.3901
7338,0.4447,0.6863,0.2416
7340,0.2641,0.3694,0.1053
7342,0.1138,0.115,0.0012
7344,0.0049,0.0184,0.0135
7346,-0.0382,-0.0861,-0.0478
7348,-0.0463,-0.1113,-0.065
7350,-0.0271,-0.0919,-0.0648
7352,-0.0171,-0.0669,-0.0499
7354,0.0219,-0.0456,-0.0676
7356,0.0287,0.0111,-0.0176
7358,0.0547,0.0237,-0.031
7360,0.0271,0.0475,0.0204
7362,0.0545,0.0661,0.0116
7364,0.0521,0.0785,0.0264
7366,0.0578,0.07,0.0122
7368,0.0787,0.059,-0.0197
7370,0.0592,0.0627,0.0035
7372,0.0657,0.0866,0.0209
7374,0.0456,0.1119,0.0663
7376,0.0937,0.085,-0.0087
7378,0.089,0.1258,0.0367
7380,0.0833,0.0819,-0.0014
7382,0.1303,0.1248,-0.0056
7384,0.069,0.114,0.045
7386,0.0939,0.1451,0.0512
7388,0.0968,0.1427,0.046
7390,0.126,0.1547,0.0287
7392,0.1228,0.1645,0.0417
7394,0.0998,0.1516,0.0517
7396,0.1142,0.1636,0.0495
7398,0.1115,0.1528,0.0413
7400,0.1255,0.1811,0.0556
7402,0.1323,0.2048,0.0725
7404,0.1342,0.1923,0.0581
7406,0.1393,0.2259,0.0866
7408,0.178,0.1878,0.0098
7410,0.1538,0.2063,0.0525
7412,0.1636,0.2547,0.0911
7414,0.1818,0.2553,0.0735
7416,0.196,0.248,0.052
7418,0.1963,0.2746,0.0783
7420,0.2001,0.2964,0.0963
7422,0.2029,0.2745,0.0715
7424,0.2301,0.3145,0.0844
7426,0.2191,0.2913,0.0721
7428,0.2436,0.29,0.0464
7430,0.2384,0.3511,0.1127
7432,0.2546,0.359,0.1043
7434,0.2348,0.3734,0.1386
7436,0.2486,0.3968,0.1481
7438,0.2553,0.3737,0.1183
7440,0.2482,0.4145,0.1663
7442,0.266,0.4112,0.1452
7444,0.3011,0.4174,0.1162
7446,0.2885,0.4315,0.1429
7448,0.2853,0.4463,0.161
7450,0.2788,0.4655,0.1867
7452,0.3139,0.484,0.1701
7454,0.307,0.4712,0.1642
7456,0.3089,0.4891,0.1802
7458,0.3042,0.4639,0.1597
7460,0.3223,0.478,0.1557
7462,0.3332,0.4765,0.1433
7464,0.3279,0.4887,0.1608
7466,0.3335,0.4665,0.133
7468,0.3243,0.4985,0.1742
7470,0.3413,0.4843,0.143
7472,0.2937,0.4765,0.1828
7474,0.3206,0.4839,0.1633
7476,0.2799,0.453,0.1731
7478,0.3094,0.4477,0.1384
7480,0.3183,0.4464,0.128
7482,0.2612,0.4369,0.1757
7484,0.2793,0.4136,0.1343
7486,0.2627,0.3918,0.1291
7488,0.2574,0.3975,0.14
7490,0.2541,0.3687,0.1146
7492,0.2495,0.3729,0.1234
7494,0.2276,0.3669,0.1393
7496,0.2286,0.327,0.0984
7498,0.1994,0.3196,0.1202
7500,0.1952,0.3078,0.1126
7502,0.2031,0.2654,0.0623
7504,0.1647,0.2753,0.1106
7506,0.1674,0.275,0.1076
7508,0.176,0.2304,0.0544
7510,0.1562,0.241,0.0849
7512,0.1597,0.2084,0.0487
7514,0.1566,0.2002,0.0436
7516,0.1412,0.203,0.0618
7518,0.1281,0.1727,0.0446
7520,0.1133,0.1306,0.0173
7522,0.1035,0.1474,0.0439
7524,0.1063,0.1377,0.0313
7526,0.1182,0.1517,0.0335
7528,0.0965,0.1188,0.0223
7530,0.1011,0.1136,0.0125
7532,0.0745,0.0893,0.0148
7534,0.0829,0.1087,0.0258
7536,0.0926,0.0886,-0.004
7538,0.0729,0.0971,0.0242
7540,0.0775,0.0772,-0.0003
7542,0.0746,0.0659,-0.0087
7544,0.0701,0.0578,-0.0122
7546,0.0673,0.0483,-0.019
7548,0.0631,0.0689,0.0058
7550,0.0562,0.0527,-0.0034
7552,0.0526,0.0562,0.0037
7554,0.0439,0.0556,0.0117
7556,0.0578,0.0313,-0.0265
7558,0.0706,0.0295,-0.041
7560,0.0383,0.0354,-0.0029
7562,0.0523,0.0551,0.0028
7564,0.0413,0.0552,0.0139
7566,0.036,0.0475,0.0115
7568,0.053,0.0611,0.0081
7570,0.0352,0.0439,0.0087
7572,0.0479,0.045,-0.0028
7574,0.0524,0.0583,0.0059
7576,0.0607,0.0304,-0.0303
7578,0.0246,0.0398,0.0152
7580,0.0397,0.0525,0.0129
7582,0.0611,0.0443,-0.0169
7584,0.0314,0.028,-0.0034
7586,0.0361,0.0448,0.0086
7588,0.0629,0.0536,-0.0094
7590,0.0455,0.0342,-0.0113
7592,0.0617,0.0328,-0.0289
7594,0.0371,0.0394,0.0023
7596,0.034,0.0141,-0.02
7598,0.0593,0.0415,-0.0178
7600,0.0551,0.0491,-0.0059
7602,0.0543,0.0166,-0.0377
7604,0.039,0.0413,0.0023
7606,0.0416,0.0285,-0.0131
7608,0.0323,0.0288,-0.0035
7610,0.0434,0.0195,-0.0239
7612,0.026,0.0444,0.0184
7614,0.041,0.0486,0.0076
7616,0.0489,0.0283,-0.0205
7618,0.0408,0.0489,0.0081
7620,0.0387,0.0411,0.0024
7622,0.0456,0.045,-0.0006
7624,0.0209,0.0391,0.0182
7626,0.062,0.0456,-0.0164
7628,0.0504,0.041,-0.0095
7630,0.0351,0.0643,0.0292
7632,0.0469,0.0252,-0.0216
7634,0.0348,0.0573,0.0224
7636,0.0364,0.0667,0.0302
7638,0.0407,0.0442,0.0035
7640,0.0364,0.0319,-0.0046
7642,0.0365,0.0548,0.0182
7644,0.05,0.0348,-0.0151
7646,0.0582,0.0485,-0.0097
7648,0.0515,0.0466,-0.0049
7650,0.048,0.0394,-0.0086
7652,0.0545,0.0301,-0.0243
7654,0.051,0.0287,-0.0224
7656,0.0484,0.0208,-0.0277
7658,0.0592,0.0458,-0.0134
7660,0.046,0.0341,-0.0119
7662,0.0559,0.0371,-0.0188
7664,0.0274,0.0452,0.0178
7666,0.0461,0.0274,-0.0187
7668,0.0563,0.0456,-0.0106
7670,0.0659,0.0498,-0.0161
7672,0.0594,0.0439,-0.0155
7674,0.0231,0.0386,0.0155
7676,0.0621,0.0362,-0.0259
7678,0.0418,0.0654,0.0235
7680,0.0475,0.0297,-0.0178
7682,0.067,0.0248,-0.0422
7684,0.0574,0.0619,0.0045
7686,0.0492,0.0426,-0.0066
7688,0.0549,0.0319,-0.023
7690,0.0423,0.0411,-0.0012
7692,0.0395,0.0428,0.0033
7694,0.0279,0.0391,0.0113
7696,0.0489,0.0513,0.0024
7698,0.0628,0.0317,-0.0311
7700,0.0362,0.0339,-0.0023
7702,0.0441,0.0392,-0.0049
7704,0.0565,0.0453,-0.0111
7706,0.0495,0.0364,-0.0131
7708,0.0554,0.0338,-0.0215
7710,0.0642,0.0496,-0.0146
7712,0.0459,0.0338,-0.0121
7714,0.0704,0.0561,-0.0143
7716,0.0527,0.0431,-0.0097
7718,0.0377,0.0191,-0.0186
7720,0.0521,0.0339,-0.0182
7722,0.0625,0.0468,-0.0157
7724,0.0427,0.0494,0.0067
7726,0.0523,0.0368,-0.0155
7728,0.041,0.0315,-0.0095
7730,0.0524,0.0024,-0.0501
7732,0.0466,0.0356,-0.011
7734,0.0412,0.0781,0.0369
7736,0.0439,0.0387,-0.0052
7738,0.0429,0.0647,0.0218
7740,0.0457,0.0227,-0.0229
7742,0.0408,0.0517,0.0109
7744,0.0496,0.0315,-0.0181
7746,0.0367,0.0339,-0.0028
7748,0.0371,0.059,0.0219
7750,0.0687,0.0435,-0.0253
7752,0.0385,0.0573,0.0188
7754,0.0318,0.055,0.0233
7756,0.0344,0.0382,0.0038
7758,0.0704,0.0336,-0.0369
7760,0.066,0.0477,-0.0183
7762,0.0394,0.0542,0.0148
7764,0.0379,0.0411,0.0031
7766,0.0622,0.0402,-0.0221
7768,0.0462,0.0382,-0.008
7770,0.0358,0.0411,0.0053
7772,0.0546,0.0436,-0.011
7774,0.0383,0.0518,0.0135
7776,0.0562,0.0349,-0.0213
7778,0.0435,0.0464,0.0029
7780,0.0441,0.0392,-0.0049
7782,0.0628,0.0325,-0.0303
7784,0.0275,0.0307,0.0031
7786,0.0668,0.0226,-0.0442
7788,0.0554,0.0312,-0.0241
7790,0.0386,0.0078,-0.0308
7792,0.0389,0.0417,0.0028
7794,0.0721,0.0477,-0.0244
7796,0.0443,0.0412,-0.0031
7798,0.0552,0.0533,-0.0019
7800,0.036,0.0449,0.0089
7802,0.0562,0.0528,-0.0034
7804,0.045,0.0495,0.0045
7806,0.0442,0.035,-0.0091
7808,0.0527,0.034,-0.0187
7810,0.0369,0.0413,0.0044
7812,0.0516,0.0399,-0.0117
7814,0.0325,0.0351,0.0026
7816,0.0554,0.0305,-0.0248
7818,0.0506,0.0573,0.0067
7820,0.0465,0.0208,-0.0257
7822,0.0556,0.0514,-0.0041
7824,0.032,0.0436,0.0116
7826,0.0418,0.0502,0.0084
7828,0.0391,0.0727,0.0336
7830,0.063,0.0401,-0.0229
7832,0.0328,0.0242,-0.0087
7834,0.056,0.053,-0.0031
7836,0.0336,0.0464,0.0128
7838,0.0579,0.0367,-0.0212
7840,0.0591,0.0492,-0.0099
7842,0.046,0.0557,0.0097
7844,0.0433,0.0459,0.0025
7846,0.0348,0.037,0.0022
7848,0.0357,0.0528,0.017
7850,0.0746,0.0563,-0.0183
7852,0.0675,0.0413,-0.0262
7854,0.0423,0.0299,-0.0124
7856,0.0654,0.029,-0.0364
7858,0.0483,0.051,0.0028
7860,0.0509,0.0371,-0.0139
7862,0.0508,0.0512,0.0004
7864,0.0445,0.0359,-0.0086
7866,0.0717,0.0405,-0.0312
7868,0.0496,0.0601,0.0105
7870,0.0498,0.0138,-0.036
7872,0.0554,0.0465,-0.0089
7874,0.0395,0.0367,-0.0028
7876,0.052,0.0652,0.0132
7878,0.0558,0.0381,-0.0178
7880,0.0433,0.0226,-0.0207
7882,0.0505,0.0446,-0.0059
7884,0.0546,0.0454,-0.0092
7886,0.0452,0.0494,0.0042
7888,0.04,0.0305,-0.0094
7890,0.0411,0.0349,-0.0062
7892,0.0568,0.0331,-0.0237
7894,0.0437,0.0404,-0.0033
7896,0.0445,0.0285,-0.016
7898,0.0449,0.0421,-0.0028
7900,0.0491,0.0308,-0.0183
7902,0.0484,0.0517,0.0033
7904,0.0434,0.0631,0.0197
7906,0.056,0.0353,-0.0207
7908,0.0701,0.0302,-0.0399
7910,0.05,0.0403,-0.0098
7912,0.0357,0.0867,0.051
7914,0.0696,0.04,-0.0296
7916,0.0454,0.0443,-0.0011
7918,0.046,0.0502,0.0043
7920,0.0471,0.0341,-0.013
7922,0.0464,0.028,-0.0184
7924,0.0527,0.0369,-0.0158
7926,0.0647,0.0606,-0.004
7928,0.0685,0.0478,-0.0207
7930,0.0383,0.0529,0.0147
7932,0.0516,0.0591,0.0075
7934,0.0538,0.0551,0.0013
7936,0.0488,0.0778,0.0289
7938,0.0466,0.0645,0.0178
7940,0.0336,0.0321,-0.0015
7942,0.0729,0.0437,-0.0293
7944,0.0328,0.0326,-0.0001
7946,0.062,0.0311,-0.0308
7948,0.0445,0.0411,-0.0034
7950,0.0611,0.0406,-0.0205
7952,0.0547,0.0416,-0.0131
7954,0.0502,0.0387,-0.0115
7956,0.0479,0.0616,0.0137
7958,0.0486,0.0498,0.0012
7960,0.0411,0.0595,0.0185
7962,0.0579,0.042,-0.0159
7964,0.064,0.0718,0.0078
7966,0.036,0.0238,-0.0121
7968,0.0704,0.061,-0.0094
7970,0.0312,0.0704,0.0392
7972,0.064,0.0237,-0.0403
7974,0.0495,0.0467,-0.0029
7976,0.0618,0.0406,-0.0213
7978,0.0615,0.0316,-0.0299
7980,0.067,0.0724,0.0054
7982,0.0465,0.0399,-0.0066
7984,0.0425,0.0494,0.0069
7986,0.0647,0.052,-0.0128
7988,0.0688,0.0523,-0.0165
7990,0.064,0.0783,0.0143
7992,0.0729,0.0783,0.0055
7994,0.0656,0.0623,-0.0032
7996,0.0653,0.0771,0.0118
7998,0.0737,0.0973,0.0236
8000,0.0832,0.1021,0.0189
8002,0.0972,0.0938,-0.0034
8004,0.1016,0.1077,0.0061
8006,0.1039,0.1411,0.0371
8008,0.1074,0.1735,0.0661
8010,0.129,0.1825,0.0534
8012,0.1378,0.2095,0.0717
8014,0.1521,0.203,0.0509
8016,0.1717,0.2344,0.0627
8018,0.1828,0.2448,0.062
8020,0.1589,0.258,0.099
8022,0.2055,0.2997,0.0942
8024,0.2142,0.299,0.0847
8026,0.2019,0.3074,0.1055
8028,0.2075,0.3261,0.1186
8030,0.2268,0.3348,0.108
8032,0.235,0.3291,0.0941
8034,0.2401,0.3215,0.0814
8036,0.2493,0.3207,0.0715
8038,0.2311,0.3132,0.0821
8040,0.227,0.3053,0.0784
8042,0.2099,0.2943,0.0843
8044,0.2103,0.2786,0.0682
8046,0.1887,0.2923,0.1037
8048,0.1888,0.2567,0.0679
8050,0.143,0.2203,0.0774
8052,0.1519,0.2202,0.0683
8054,0.1436,0.2023,0.0587
8056,0.1326,0.1896,0.057
8058,0.1255,0.1638,0.0384
8060,0.1101,0.1401,0.03
8062,0.1002,0.1251,0.0249
8064,0.0923,0.1105,0.0182
8066,0.0822,0.0972,0.015
8068,0.0516,0.0868,0.0351
8070,0.0744,0.0532,-0.0212
8072,0.0747,0.1075,0.0328
8074,0.0638,0.0669,0.003
8076,0.0572,0.063,0.0058
8078,0.0578,0.0653,0.0074
8080,0.063,0.0637,0.0007
8082,0.0507,0.0512,0.0005
8084,0.052,0.0184,-0.0337
8086,0.0596,0.0427,-0.0168
8088,0.0361,0.0658,0.0297
8090,0.0469,0.0524,0.0056
8092,0.0353,0.029,-0.0062
8094,0.044,0.0453,0.0013
8096,0.0567,0.0573,0.0006
8098,0.0726,0.062,-0.0106
8100,0.0445,0.0623,0.0178
8102,0.0897,0.113,0.0233
8104,0.1458,0.2213,0.0754
8106,0.2662,0.3647,0.0985
8108,0.4271,0.6347,0.2076
8110,0.6307,0.9807,0.3501
8112,0.8506,1.3112,0.4606
8114,1.0288,1.6172,0.5884
8116,1.1823,1.819,0.6366
8118,1.2108,1.9157,0.7049
8120,1.1477,1.8136,0.6659
8122,1.0054,1.5794,0.574
8124,0.7851,1.25,0.4649
8126,0.5606,0.8573,0.2967
8128,0.3514,0.5398,0.1884
8130,0.1493,0.2431,0.0938
8132,0.0703,0.0753,0.0049
8134,-0.0105,-0.0525,-0.042
8136,-0.0087,-0.0869,-0.0783
8138,-0.0515,-0.0789,-0.0274
8140,-0.0178,-0.0688,-0.051
8142,-0.0185,-0.0244,-0.0058
8144,0.0272,-0.012,-0.0392
8146,0.0507,0.0352,-0.0155
8148,0.0807,0.0627,-0.0179
8150,0.0748,0.0519,-0.0229
8152,0.0554,0.0711,0.0157
8154,0.0761,0.0923,0.0162
8156,0.0951,0.0922,-0.0029
8158,0.0658,0.0844,0.0187
8160,0.0823,0.0994,0.0171
8162,0.0921,0.0976,0.0056
8164,0.0897,0.1215,0.0317
8166,0.0749,0.1405,0.0656
8168,0.0967,0.132,0.0353
8170,0.0983,0.1149,0.0166
8172,0.0956,0.1346,0.039
8174,0.1082,0.138,0.0298
8176,0.1299,0.1168,-0.0131
8178,0.1149,0.1535,0.0386
8180,0.1141,0.1747,0.0606
8182,0.1303,0.1508,0.0205
8184,0.1362,0.19,0.0538
8186,0.1128,0.151,0.0383
8188,0.1392,0.1772,0.038
8190,0.1316,0.195,0.0634
8192,0.1374,0.1922,0.0547
8194,0.1479,0.2106,0.0628
8196,0.1503,0.2332,0.0829
8198,0.1684,0.238,0.0696
8200,0.1529,0.2244,0.0714
8202,0.1791,0.2531,0.074
8204,0.1822,0.2377,0.0555
8206,0.199,0.2676,0.0686
8208,0.1708,0.2788,0.108
8210,0.1888,0.2787,0.0899
8212,0.2125,0.2999,0.0874
8214,0.2277,0.3258,0.0981
8216,0.2372,0.3284,0.0913
8218,0.2468,0.3479,0.1011
8220,0.2533,0.36,0.1067
8222,0.254,0.3642,0.1102
8224,0.2561,0.393,0.1368
8226,0.2884,0.3967,0.1083
8228,0.2866,0.416,0.1295
8230,0.282,0.4453,0.1633
8232,0.2867,0.4306,0.1439
8234,0.2903,0.4251,0.1347
8236,0.2881,0.4459,0.1578
8238,0.3193,0.4596,0.1403
8240,0.3205,0.4592,0.1387
8242,0.3607,0.4787,0.118
8244,0.3437,0.4816,0.1379
8246,0.3402,0.4908,0.1506
8248,0.3308,0.478,0.1472
8250,0.3416,0.4949,0.1533
8252,0.3503,0.5027,0.1525
8254,0.3298,0.4768,0.147
8256,0.322,0.4855,0.1635
8258,0.324,0.4785,0.1546
8260,0.3295,0.4864,0.1569
8262,0.2954,0.4837,0.1883
8264,0.3227,0.4629,0.1402
8266,0.2823,0.4687,0.1864
8268,0.2682,0.4458,0.1776
8270,0.2967,0.4473,0.1506
8272,0.2882,0.4396,0.1514
8274,0.2664,0.4188,0.1524
8276,0.2716,0.416,0.1444
8278,0.2603,0.3926,0.1322
8280,0.2686,0.3741,0.1055
8282,0.2451,0.3542,0.109
8284,0.2352,0.3585,0.1233
8286,0.2414,0.3723,0.1309
8288,0.2128,0.3315,0.1187
8290,0.1905,0.2917,0.1012
8292,0.1994,0.2911,0.0917
8294,0.1964,0.2881,0.0917
8296,0.1875,0.2307,0.0433
8298,0.1765,0.2219,0.0455
8300,0.1645,0.2119,0.0474
8302,0.1524,0.2124,0.06
8304,0.1453,0.1875,0.0421
8306,0.1209,0.1988,0.0779
8308,0.1299,0.1773,0.0474
8310,0.1094,0.1563,0.0469
8312,0.1126,0.1386,0.0259
8314,0.1216,0.1578,0.0362
8316,0.095,0.1243,0.0292
8318,0.1092,0.1109,0.0016
8320,0.1146,0.1153,0.0007
8322,0.0636,0.1317,0.0682
8324,0.0999,0.0903,-0.0096
8326,0.076,0.1033,0.0273
8328,0.0872,0.0857,-0.0015
8330,0.0612,0.0866,0.0254
8332,0.0905,0.0832,-0.0073
8334,0.0745,0.0548,-0.0197
8336,0.0605,0.0694,0.0089
8338,0.0804,0.0524,-0.028
8340,0.0484,0.0723,0.0239
8342,0.0673,0.0578,-0.0095
8344,0.0588,0.0807,0.0219
8346,0.0623,0.0598,-0.0025
8348,0.0636,0.0709,0.0073
8350,0.0482,0.0748,0.0267
8352,0.0479,0.0392,-0.0086
8354,0.0638,0.0376,-0.0261
8356,0.0446,0.0573,0.0127
8358,0.0263,0.0657,0.0394
8360,0.04,0.0635,0.0234
8362,0.0409,0.0346,-0.0064
8364,0.0689,0.0588,-0.0101
8366,0.0457,0.0657,0.0201
8368,0.0504,0.0433,-0.0071
8370,0.0291,0.0244,-0.0047
8372,0.0349,0.0391,0.0042
8374,0.0453,0.0556,0.0102
8376,0.0566,0.0321,-0.0245
8378,0.0579,0.0495,-0.0084
8380,0.0415,0.0334,-0.008
8382,0.0491,0.0349,-0.0142
8384,0.0415,0.0411,-0.0003
8386,0.0459,0.0219,-0.024
8388,0.0632,0.0583,-0.005
8390,0.0427,0.0562,0.0134
8392,0.051,0.0154,-0.0356
8394,0.0312,0.0456,0.0144
8396,0.0387,0.0336,-0.0051
8398,0.037,0.0648,0.0278
8400,0.0618,0.0461,-0.0157
8402,0.041,0.0503,0.0094
8404,0.0463,0.0512,0.0049
8406,0.0607,0.0302,-0.0306
8408,0.0605,0.054,-0.0065
8410,0.0487,0.0558,0.0071
8412,0.0446,0.0471,0.0025
8414,0.0285,0.0517,0.0231
8416,0.0501,0.0504,0.0003
8418,0.0544,0.0538,-0.0006
8420,0.0575,0.0325,-0.025
8422,0.0602,0.073,0.0128
8424,0.0318,0.0467,0.015
8426,0.0387,0.0424,0.0036
8428,0.0522,0.0258,-0.0264
8430,0.0653,0.0282,-0.0371
8432,0.0262,0.0379,0.0117
8434,0.0338,0.0373,0.0035
8436,0.0598,0.0607,0.0008
8438,0.041,0.0312,-0.0099
8440,0.0391,0.0482,0.0091
8442,0.0584,0.0348,-0.0236
8444,0.0613,0.0496,-0.0116
8446,0.0288,0.0348,0.006
8448,0.0489,0.0464,-0.0025
8450,0.0234,0.051,0.0276
8452,0.0551,0.0261,-0.029
8454,0.0423,0.0536,0.0113
8456,0.0468,0.0676,0.0208
8458,0.0506,0.0431,-0.0075
8460,0.0427,0.0433,0.0007
8462,0.0584,0.0445,-0.014
8464,0.0279,0.0471,0.0192
8466,0.0655,0.0437,-0.0219
8468,0.0458,0.0275,-0.0183
8470,0.0348,0.0496,0.0149
8472,0.0389,0.074,0.0351
8474,0.0697,0.0184,-0.0513
8476,0.0466,0.0159,-0.0307
8478,0.0468,0.0338,-0.0129
8480,0.0318,0.0484,0.0166
8482,0.0367,0.0476,0.0108
8484,0.0369,0.055,0.0182
8486,0.0262,0.0492,0.023
8488,0.0415,0.0637,0.0222
8490,0.0271,0.0469,0.0197
8492,0.0494,0.0523,0.003
8494,0.0434,0.0629,0.0195
8496,0.0534,0.0361,-0.0173
8498,0.0406,0.0397,-0.0009
8500,0.0253,0.0458,0.0206
8502,0.0437,0.0358,-0.0079
8504,0.0307,0.0603,0.0295
8506,0.0349,0.0335,-0.0014
8508,0.0675,0.034,-0.0335
8510,0.0633,0.0355,-0.0277
8512,0.0328,0.0318,-0.001
8514,0.0713,0.058,-0.0133
8516,0.0618,0.0203,-0.0415
8518,0.0329,0.0596,0.0267
8520,0.0355,0.0381,0.0026
8522,0.0521,0.0273,-0.0248
8524,0.0371,0.0246,-0.0125
8526,0.0412,0.0408,-0.0004
8528,0.0383,0.0719,0.0336
8530,0.0545,0.0256,-0.0289
8532,0.0266,0.045,0.0184
8534,0.0351,0.0426,0.0074
8536,0.0465,0.0481,0.0017
8538,0.0353,0.0336,-0.0017
8540,0.0237,0.0506,0.0269
8542,0.0417,0.0612,0.0195
8544,0.0461,0.0537,0.0076
8546,0.0408,0.0366,-0.0042
8548,0.0424,0.0321,-0.0103
8550,0.0583,0.0346,-0.0236
8552,0.0715,0.0501,-0.0214
8554,0.059,0.0356,-0.0234
8556,0.0583,0.0366,-0.0217
8558,0.0462,0.0493,0.0031
8560,0.0467,0.035,-0.0117
8562,0.0417,0.0396,-0.0021
8564,0.0467,0.0409,-0.0059
8566,0.0422,0.0529,0.0107
8568,0.0535,0.0309,-0.0226
8570,0.0545,0.0345,-0.02
8572,0.0698,0.0575,-0.0123
8574,0.0256,0.0438,0.0181
8576,0.0506,0.0597,0.0091
8578,0.0515,0.0481,-0.0034
8580,0.0315,0.0471,0.0156
8582,0.0548,0.0573,0.0026
8584,0.0476,0.0402,-0.0074
8586,0.0657,0.0226,-0.043
8588,0.0481,0.0177,-0.0304
8590,0.0607,0.0309,-0.0298
8592,0.0378,0.0465,0.0087
8594,0.0552,0.0341,-0.0211
8596,0.0659,0.0341,-0.0318
8598,0.0396,0.0437,0.004
8600,0.0279,0.0631,0.0353
8602,0.0317,0.0473,0.0155
8604,0.0533,0.0431,-0.0102
8606,0.0349,0.0311,-0.0038
8608,0.0422,0.0357,-0.0066
8610,0.0285,0.0602,0.0317
8612,0.0637,0.0444,-0.0193
8614,0.0623,0.0464,-0.0159
8616,0.0642,0.0386,-0.0256
8618,0.0289,0.0424,0.0135
8620,0.0273,0.0447,0.0174
8622,0.0612,0.0502,-0.011
8624,0.0532,0.0495,-0.0036
8626,0.0464,0.0396,-0.0068
8628,0.0456,0.0235,-0.022
8630,0.0513,0.0293,-0.022
8632,0.0532,0.0288,-0.0244
8634,0.034,0.0391,0.0051
8636,0.0715,0.0462,-0.0253
8638,0.0308,0.0307,-0.0002
8640,0.0198,0.0528,0.033
8642,0.0343,0.0451,0.0108
8644,0.016,0.0372,0.0212
8646,0.0555,0.0581,0.0026
8648,0.0402,0.0504,0.0101
8650,0.0519,0.0687,0.0167
8652,0.058,0.0355,-0.0225
8654,0.0627,0.0533,-0.0094
8656,0.0434,0.0648,0.0214
8658,0.0408,0.0638,0.0229
8660,0.0383,0.0349,-0.0034
8662,0.0408,0.0158,-0.0249
8664,0.0478,0.0446,-0.0032
8666,0.0432,0.0357,-0.0075
8668,0.0672,0.0558,-0.0114
8670,0.062,0.0529,-0.0092
8672,0.0285,0.0735,0.045
8674,0.0301,0.0455,0.0154
8676,0.0668,0.038,-0.0288
8678,0.0363,0.052,0.0157
8680,0.0516,0.0439,-0.0078
8682,0.0574,0.0442,-0.0132
8684,0.0467,0.058,0.0113
8686,0.062,0.063,0.0009
8688,0.0413,0.0244,-0.0168
8690,0.0631,0.0438,-0.0192
8692,0.0355,0.0668,0.0313
8694,0.0476,0.045,-0.0027
8696,0.0369,0.0299,-0.0069
8698,0.0591,0.0658,0.0067
8700,0.0461,0.0445,-0.0017
8702,0.0698,0.0658,-0.004
8704,0.0639,0.0356,-0.0282
8706,0.0548,0.0246,-0.0303
8708,0.0549,0.0483,-0.0065
8710,0.0459,0.0446,-0.0014
8712,0.0352,0.0422,0.0071
8714,0.0527,0.0109,-0.0418
8716,0.0401,0.0285,-0.0116
8718,0.0536,0.034,-0.0196
8720,0.0292,0.0419,0.0127
8722,0.0422,0.0526,0.0103
8724,0.0355,0.0591,0.0236
8726,0.0526,0.0413,-0.0113
8728,0.0221,0.0478,0.0258
8730,0.0488,0.0322,-0.0166
8732,0.061,0.0388,-0.0222
8734,0.0518,0.0292,-0.0226
8736,0.0426,0.022,-0.0206
8738,0.0313,0.033,0.0016
8740,0.0305,0.0342,0.0038
8742,0.0417,0.0522,0.0105
8744,0.0527,0.0544,0.0017
8746,0.043,0.0476,0.0046
8748,0.037,0.042,0.0049
8750,0.0511,0.0417,-0.0094
8752,0.0308,0.0327,0.0019
8754,0.0404,0.046,0.0057
8756,0.0439,0.0435,-0.0003
8758,0.0449,0.0534,0.0085
8760,0.0487,0.042,-0.0067
8762,0.0445,0.0631,0.0186
8764,0.0478,0.0394,-0.0084
8766,0.0604,0.0411,-0.0193
8768,0.0483,0.0381,-0.0103
8770,0.0349,0.0236,-0.0113
8772,0.0448,0.0269,-0.0179
8774,0.0474,0.0214,-0.026
8776,0.0313,0.0394,0.0081
8778,0.0355,0.0793,0.0438
8780,0.0631,0.0327,-0.0304
8782,0.0576,0.0436,-0.014
8784,0.0437,0.0499,0.0062
8786,0.0285,0.0398,0.0114
8788,0.0526,0.0291,-0.0235
8790,0.0445,0.0552,0.0108
8792,0.0808,0.0825,0.0017
8794,0.0714,0.0749,0.0035
8796,0.07,0.0727,0.0027
8798,0.0623,0.0854,0.0231
8800,0.0862,0.1066,0.0204
8802,0.0737,0.0976,0.0239
8804,0.0994,0.1066,0.0072
8806,0.1165,0.1106,-0.0059
8808,0.1161,0.146,0.0299
8810,0.1082,0.156,0.0478
8812,0.1466,0.1867,0.0401
8814,0.1147,0.2209,0.1063
8816,0.1743,0.1971,0.0228
8818,0.1717,0.2305,0.0588
8820,0.1779,0.2639,0.0861
8822,0.1695,0.2906,0.1212
8824,0.1944,0.3022,0.1078
8826,0.1881,0.3058,0.1176
8828,0.218,0.3357,0.1177
8830,0.2132,0.3134,0.1002
8832,0.2333,0.3473,0.1139
8834,0.2145,0.3404,0.1259
8836,0.2313,0.3357,0.1044
8838,0.2126,0.3313,0.1187
8840,0.2177,0.2988,0.0812
8842,0.2326,0.31,0.0775
8844,0.1839,0.2766,0.0928
8846,0.1923,0.2854,0.093
8848,0.1686,0.2453,0.0768
8850,0.1506,0.223,0.0724
8852,0.1413,0.2112,0.0699
8854,0.1377,0.1931,0.0554
8856,0.138,0.1768,0.0388
8858,0.1273,0.1496,0.0223
8860,0.1077,0.1176,0.0099
8862,0.0983,0.105,0.0067
8864,0.0884,0.1174,0.029
8866,0.0851,0.0982,0.0131
8868,0.07,0.1003,0.0303
8870,0.0659,0.0911,0.0252
8872,0.0728,0.0464,-0.0264
8874,0.0354,0.0614,0.026
8876,0.0581,0.0573,-0.0008
8878,0.0544,0.0253,-0.0291
8880,0.0524,0.0691,0.0167
8882,0.0638,0.0429,-0.0209
8884,0.0575,0.0486,-0.0089
8886,0.0481,0.0348,-0.0133
8888,0.0374,0.0347,-0.0027
8890,0.0447,0.0532,0.0085
8892,0.043,0.0413,-0.0018
8894,0.0559,0.0282,-0.0278
8896,0.0507,0.022,-0.0287
8898,0.0348,0.0426,0.0078
8900,0.0549,0.0382,-0.0167
8902,0.0699,0.0865,0.0166
8904,0.1246,0.1782,0.0536
8906,0.1958,0.3014,0.1056
8908,0.3568,0.5337,0.177
8910,0.5475,0.8397,0.2922
8912,0.753,1.1785,0.4255
8914,0.9617,1.5165,0.5547
8916,1.1207,1.7671,0.6464
8918,1.1923,1.8915,0.6992
8920,1.1639,1.854,0.6901
8922,1.0708,1.6422,0.5715
8924,0.8637,1.3728,0.5091
8926,0.6283,1.0039,0.3756
8928,0.4244,0.6396,0.2152
8930,0.203,0.3322,0.1291
8932,0.084,0.1103,0.0264
8934,0.0091,-0.018,-0.0271
8936,-0.0403,-0.0695,-0.0292
8938,-0.0496,-0.1022,-0.0526
8940,-0.017,-0.0865,-0.0695
8942,-0.0002,-0.0319,-0.0317
8944,0.0049,-0.0324,-0.0373
8946,0.0169,0.0029,-0.014
8948,0.0323,0.049,0.0167
8950,0.0609,0.0486,-0.0123
8952,0.0698,0.0738,0.004
8954,0.0725,0.0937,0.0213
8956,0.0646,0.0716,0.0071
8958,0.0823,0.0668,-0.0154
8960,0.0651,0.0837,0.0186
8962,0.0929,0.0861,-0.0068
8964,0.076,0.0979,0.0219
8966,0.0707,0.1134,0.0427
8968,0.0815,0.1332,0.0517
8970,0.0956,0.1285,0.033
8972,0.085,0.1182,0.0332
8974,0.0861,0.1622,0.0761
8976,0.088,0.1289,0.0409
8978,0.1129,0.1271,0.0142
8980,0.1085,0.142,0.0335
8982,0.1085,0.1509,0.0423
8984,0.1134,0.18,0.0666
8986,0.1357,0.1659,0.0302
8988,0.1132,0.1882,0.075
8990,0.1417,0.1897,0.0481
8992,0.1404,0.191,0.0506
8994,0.1369,0.18,0.0431
8996,0.1279,0.1942,0.0663
8998,0.1531,0.1885,0.0354
9000,0.1545,0.2323,0.0778
9002,0.1727,0.2387,0.066
9004,0.1653,0.2351,0.0698
9006,0.1752,0.2749,0.0997
9008,0.1898,0.3001,0.1103
9010,0.2128,0.2594,0.0466
9012,0.2003,0.3062,0.106
9014,0.1741,0.2811,0.107
9016,0.2125,0.3352,0.1227
9018,0.2045,0.3486,0.1441
9020,0.2278,0.3467,0.1189
9022,0.2567,0.3501,0.0935
9024,0.2574,0.3712,0.1137
9026,0.2616,0.3836,0.1221
9028,0.2642,0.3827,0.1185
9030,0.2925,0.3986,0.1061
9032,0.2753,0.4266,0.1514
9034,0.2809,0.4216,0.1407
9036,0.3019,0.4298,0.1279
9038,0.3063,0.4646,0.1583
9040,0.3225,0.4597,0.1373
9042,0.2977,0.4486,0.1509
9044,0.3299,0.4637,0.1338
9046,0.3108,0.4543,0.1436
9048,0.3153,0.4826,0.1673
9050,0.332,0.4795,0.1476
9052,0.3247,0.4809,0.1562
9054,0.3116,0.4987,0.1871
9056,0.3217,0.4851,0.1635
9058,0.3296,0.5015,0.1719
9060,0.3179,0.4927,0.1749
9062,0.2876,0.4693,0.1817
9064,0.3106,0.464,0.1534
9066,0.29,0.484,0.1939
9068,0.3067,0.4355,0.1288
9070,0.2868,0.4376,0.1508
9072,0.268,0.422,0.1539
9074,0.2437,0.4005,0.1567
9076,0.2946,0.3998,0.1052
9078,0.2583,0.392,0.1336
9080,0.2481,0.3718,0.1237
9082,0.232,0.3555,0.1236
9084,0.2351,0.3369,0.1018
9086,0.2139,0.3352,0.1213
9088,0.2178,0.3151,0.0973
9090,0.1829,0.2937,0.1108
9092,0.1915,0.2705,0.0791
9094,0.1899,0.2645,0.0746
9096,0.1631,0.2365,0.0734
9098,0.1691,0.2326,0.0634
9100,0.177,0.2238,0.0468
9102,0.1393,0.2168,0.0774
9104,0.1329,0.2083,0.0754
9106,0.1391,0.1844,0.0453
9108,0.125,0.1711,0.0461
9110,0.1089,0.1672,0.0583
9112,0.1087,0.1439,0.0352
9114,0.0675,0.1415,0.0741
9116,0.0794,0.1072,0.0278
9118,0.0854,0.0963,0.0109
9120,0.093,0.0991,0.006
9122,0.055,0.1135,0.0586
9124,0.0793,0.0723,-0.0069
9126,0.0582,0.0788,0.0207
9128,0.0702,0.0767,0.0064
9130,0.0597,0.0755,0.0158
9132,0.078,0.0505,-0.0275
9134,0.0586,0.0517,-0.0068
9136,0.049,0.0613,0.0123
9138,0.0654,0.068,0.0026
9140,0.0558,0.0474,-0.0083
9142,0.0502,0.0561,0.006
9144,0.0301,0.0437,0.0137
9146,0.0496,0.0493,-0.0002
9148,0.0517,0.0526,0.001
